Test_Time(s),Voltage(V),Current(A),remaining capacity,maximum capacity
0.0,4.0396,-1.2998,1.292361,1.292361
1.0,4.0173,-1.2998,1.2919999444444445,1.292361
2.0,4.0122,-1.3,1.291638888888889,1.292361
3.0,4.0088,-1.2999,1.291277777777778,1.292361
4.0,4.0057,-1.2999,1.2909166944444446,1.292361
5.0,4.003,-1.2999,1.2905556111111112,1.292361
6.0,4.0004,-1.2999,1.2901945277777778,1.292361
7.0,3.9983,-1.2999,1.2898334444444446,1.292361
8.0,3.9962,-1.2999,1.2894723611111112,1.292361
9.0,3.9942,-1.2999,1.2891112777777778,1.292361
10.0,3.9923,-1.3,1.2887501944444446,1.292361
11.0,3.9904,-1.3,1.2883890833333334,1.292361
12.0,3.9885,-1.2999,1.2880279722222223,1.292361
13.0,3.9867,-1.3,1.287666888888889,1.292361
14.0,3.9853,-1.2999,1.2873057777777779,1.292361
15.0,3.9835,-1.2998,1.2869446944444445,1.292361
16.0,3.982,-1.2999,1.286583638888889,1.292361
17.0,3.9806,-1.3,1.2862225555555558,1.292361
18.0,3.979,-1.3,1.2858614444444445,1.292361
19.0,3.9775,-1.2999,1.2855003333333335,1.292361
20.0,3.976,-1.2999,1.28513925,1.292361
21.0,3.9747,-1.3,1.2847781666666667,1.292361
22.0,3.9732,-1.3001,1.2844170555555556,1.292361
23.0,3.9719,-1.3,1.2840559166666667,1.292361
24.0,3.9704,-1.2999,1.2836948055555557,1.292361
25.0,3.9692,-1.2999,1.2833337222222223,1.292361
26.0,3.968,-1.2999,1.282972638888889,1.292361
27.0,3.9667,-1.2999,1.2826115555555557,1.292361
28.0,3.9654,-1.2999,1.2822504722222223,1.292361
29.0,3.9644,-1.3,1.281889388888889,1.292361
30.0,3.9627,-1.2999,1.281528277777778,1.292361
31.0,3.9619,-1.2999,1.2811671944444445,1.292361
32.0,3.9607,-1.2998,1.2808061111111113,1.292361
33.0,3.9591,-1.2999,1.2804450555555555,1.292361
34.0,3.9585,-1.3,1.2800839722222224,1.292361
35.0,3.9572,-1.2999,1.279722861111111,1.292361
36.0,3.956,-1.3,1.279361777777778,1.292361
37.0,3.9548,-1.3,1.2790006666666667,1.292361
38.0,3.9537,-1.2999,1.2786395555555556,1.292361
39.0,3.9525,-1.3,1.2782784722222222,1.292361
40.0,3.9513,-1.2999,1.2779173611111112,1.292361
41.0,3.9505,-1.2999,1.2775562777777778,1.292361
42.0,3.9494,-1.2999,1.2771951944444446,1.292361
43.0,3.9485,-1.2999,1.2768341111111112,1.292361
44.0,3.9473,-1.2999,1.2764730277777778,1.292361
45.0,3.9461,-1.3,1.2761119444444446,1.292361
46.0,3.9452,-1.2999,1.2757508333333334,1.292361
47.0,3.9442,-1.2999,1.27538975,1.292361
48.0,3.9432,-1.2999,1.2750286666666668,1.292361
49.0,3.9423,-1.3001,1.2746675833333334,1.292361
50.0,3.9413,-1.3,1.2743064444444445,1.292361
51.0,3.9401,-1.3001,1.2739453333333335,1.292361
52.0,3.9392,-1.2999,1.2735841944444446,1.292361
53.0,3.9383,-1.2999,1.2732231111111112,1.292361
54.0,3.9374,-1.2999,1.2728620277777778,1.292361
55.0,3.9363,-1.2999,1.2725009444444446,1.292361
56.0,3.9354,-1.2999,1.2721398611111112,1.292361
57.0,3.9344,-1.3001,1.2717787777777778,1.292361
58.0,3.9334,-1.2998,1.271417638888889,1.292361
59.0,3.9325,-1.3,1.2710565833333334,1.292361
60.0,3.9315,-1.2999,1.2706954722222223,1.292361
61.0,3.9308,-1.3,1.270334388888889,1.292361
62.0,3.9297,-1.2999,1.269973277777778,1.292361
63.0,3.9289,-1.2999,1.2696121944444445,1.292361
64.0,3.928,-1.2999,1.269251111111111,1.292361
65.0,3.9271,-1.3,1.268890027777778,1.292361
66.0,3.9262,-1.2999,1.2685289166666667,1.292361
67.0,3.9254,-1.2999,1.2681678333333335,1.292361
68.0,3.9245,-1.2999,1.26780675,1.292361
69.0,3.9237,-1.2999,1.2674456666666667,1.292361
70.0,3.9228,-1.2999,1.2670845833333335,1.292361
71.0,3.922,-1.3,1.2667235000000001,1.292361
72.0,3.9213,-1.2999,1.266362388888889,1.292361
73.0,3.92,-1.2999,1.2660013055555557,1.292361
74.0,3.9194,-1.2999,1.2656402222222223,1.292361
75.0,3.9186,-1.3,1.2652791388888889,1.292361
76.0,3.9177,-1.3001,1.2649180277777778,1.292361
77.0,3.9168,-1.2998,1.264556888888889,1.292361
78.0,3.9162,-1.3,1.2641958333333334,1.292361
79.0,3.9152,-1.2999,1.2638347222222224,1.292361
80.0,3.9146,-1.3,1.263473638888889,1.292361
81.0,3.9137,-1.3,1.263112527777778,1.292361
82.0,3.9127,-1.2999,1.2627514166666667,1.292361
83.0,3.9121,-1.3,1.2623903333333335,1.292361
84.0,3.9113,-1.2999,1.2620292222222222,1.292361
85.0,3.9102,-1.3,1.261668138888889,1.292361
86.0,3.9097,-1.2999,1.2613070277777778,1.292361
87.0,3.9091,-1.3,1.2609459444444446,1.292361
88.0,3.9082,-1.3,1.2605848333333334,1.292361
89.0,3.9075,-1.2999,1.2602237222222223,1.292361
90.0,3.9068,-1.3,1.259862638888889,1.292361
91.0,3.9059,-1.2999,1.259501527777778,1.292361
92.0,3.9052,-1.3,1.2591404444444445,1.292361
93.0,3.9047,-1.2998,1.2587793333333335,1.292361
94.0,3.9037,-1.2999,1.258418277777778,1.292361
95.0,3.9031,-1.2999,1.2580571944444445,1.292361
96.0,3.9023,-1.3,1.2576961111111111,1.292361
97.0,3.9016,-1.3,1.257335,1.292361
98.0,3.9009,-1.2999,1.256973888888889,1.292361
99.0,3.9001,-1.3,1.2566128055555557,1.292361
100.0,3.8993,-1.3,1.2562516944444446,1.292361
101.0,3.8986,-1.2999,1.2558905833333334,1.292361
102.0,3.8979,-1.3,1.2555295000000002,1.292361
103.0,3.8974,-1.2999,1.255168388888889,1.292361
104.0,3.8966,-1.2999,1.2548073055555555,1.292361
105.0,3.8961,-1.2999,1.2544462222222224,1.292361
106.0,3.8953,-1.3,1.254085138888889,1.292361
107.0,3.8946,-1.2999,1.253724027777778,1.292361
108.0,3.894,-1.2999,1.2533629444444445,1.292361
109.0,3.8932,-1.2999,1.2530018611111111,1.292361
110.0,3.8926,-1.2999,1.252640777777778,1.292361
111.0,3.8919,-1.3,1.2522796944444445,1.292361
112.0,3.8913,-1.2999,1.2519185833333335,1.292361
113.0,3.8906,-1.2998,1.2515575,1.292361
114.0,3.8899,-1.2999,1.2511964444444446,1.292361
115.0,3.8893,-1.2999,1.2508353611111112,1.292361
116.0,3.8885,-1.2998,1.2504742777777778,1.292361
117.0,3.888,-1.2999,1.2501132222222222,1.292361
118.0,3.8873,-1.3,1.249752138888889,1.292361
119.0,3.8866,-1.2999,1.2493910277777778,1.292361
120.0,3.886,-1.3,1.2490299444444446,1.292361
121.0,3.8852,-1.2999,1.2486688333333333,1.292361
122.0,3.8845,-1.3,1.2483077500000002,1.292361
123.0,3.8843,-1.2999,1.247946638888889,1.292361
124.0,3.8834,-1.3,1.2475855555555557,1.292361
125.0,3.8829,-1.2999,1.2472244444444445,1.292361
126.0,3.8824,-1.2999,1.2468633611111113,1.292361
127.0,3.8816,-1.3,1.246502277777778,1.292361
128.0,3.881,-1.2999,1.2461411666666669,1.292361
129.0,3.8804,-1.2999,1.2457800833333335,1.292361
130.0,3.8798,-1.2999,1.245419,1.292361
131.0,3.8794,-1.2999,1.2450579166666667,1.292361
132.0,3.8788,-1.3,1.2446968333333335,1.292361
133.0,3.8779,-1.3,1.2443357222222222,1.292361
134.0,3.8774,-1.2999,1.2439746111111112,1.292361
135.0,3.877,-1.2999,1.2436135277777778,1.292361
136.0,3.8764,-1.2999,1.2432524444444446,1.292361
137.0,3.8758,-1.2999,1.2428913611111112,1.292361
138.0,3.875,-1.2998,1.2425302777777778,1.292361
139.0,3.8745,-1.3,1.2421692222222223,1.292361
140.0,3.874,-1.3,1.2418081111111112,1.292361
141.0,3.8735,-1.2999,1.241447,1.292361
142.0,3.873,-1.2999,1.2410859166666668,1.292361
143.0,3.8723,-1.2999,1.2407248333333334,1.292361
144.0,3.8716,-1.2999,1.24036375,1.292361
145.0,3.8712,-1.3,1.2400026666666668,1.292361
146.0,3.8708,-1.2999,1.2396415555555556,1.292361
147.0,3.8701,-1.2999,1.2392804722222224,1.292361
148.0,3.8693,-1.2999,1.238919388888889,1.292361
149.0,3.8691,-1.3,1.2385583055555556,1.292361
150.0,3.8686,-1.2999,1.2381971944444445,1.292361
151.0,3.8679,-1.2999,1.2378361111111111,1.292361
152.0,3.8674,-1.2999,1.237475027777778,1.292361
153.0,3.867,-1.2999,1.2371139444444446,1.292361
154.0,3.8662,-1.2999,1.2367528611111112,1.292361
155.0,3.8658,-1.3,1.2363917777777778,1.292361
156.0,3.8653,-1.2999,1.2360306666666667,1.292361
157.0,3.8647,-1.3001,1.2356695833333333,1.292361
158.0,3.8641,-1.3,1.2353084444444444,1.292361
159.0,3.8638,-1.3,1.2349473333333334,1.292361
160.0,3.8632,-1.2999,1.2345862222222224,1.292361
161.0,3.8627,-1.3,1.234225138888889,1.292361
162.0,3.862,-1.2999,1.233864027777778,1.292361
163.0,3.8616,-1.3,1.2335029444444445,1.292361
164.0,3.8611,-1.2999,1.2331418333333335,1.292361
165.0,3.8609,-1.3,1.23278075,1.292361
166.0,3.8599,-1.3,1.232419638888889,1.292361
167.0,3.8594,-1.2999,1.2320585277777778,1.292361
168.0,3.859,-1.3,1.2316974444444446,1.292361
169.0,3.8584,-1.2999,1.2313363333333334,1.292361
170.0,3.8579,-1.2999,1.2309752500000002,1.292361
171.0,3.8576,-1.3,1.2306141666666668,1.292361
172.0,3.8569,-1.3,1.2302530555555555,1.292361
173.0,3.8565,-1.2998,1.2298919444444445,1.292361
174.0,3.8559,-1.3,1.229530888888889,1.292361
175.0,3.8556,-1.3,1.229169777777778,1.292361
176.0,3.855,-1.2999,1.2288086666666667,1.292361
177.0,3.8548,-1.3001,1.2284475833333335,1.292361
178.0,3.8543,-1.3,1.2280864444444446,1.292361
179.0,3.8537,-1.2999,1.2277253333333333,1.292361
180.0,3.8531,-1.2999,1.2273642500000002,1.292361
181.0,3.8526,-1.2999,1.2270031666666668,1.292361
182.0,3.8522,-1.2998,1.2266420833333334,1.292361
183.0,3.8516,-1.3,1.2262810277777778,1.292361
184.0,3.8512,-1.2999,1.2259199166666668,1.292361
185.0,3.8508,-1.3,1.2255588333333334,1.292361
186.0,3.8503,-1.3,1.2251977222222223,1.292361
187.0,3.8497,-1.2999,1.2248366111111113,1.292361
188.0,3.8491,-1.2999,1.224475527777778,1.292361
189.0,3.849,-1.3,1.2241144444444445,1.292361
190.0,3.8484,-1.2999,1.2237533333333335,1.292361
191.0,3.8478,-1.2999,1.22339225,1.292361
192.0,3.8474,-1.3,1.2230311666666667,1.292361
193.0,3.847,-1.3,1.2226700555555556,1.292361
194.0,3.8464,-1.3,1.2223089444444446,1.292361
195.0,3.8462,-1.3,1.2219478333333333,1.292361
196.0,3.8455,-1.3,1.2215867222222223,1.292361
197.0,3.8451,-1.3,1.2212256111111113,1.292361
198.0,3.8445,-1.2999,1.2208645,1.292361
199.0,3.8442,-1.2999,1.2205034166666668,1.292361
200.0,3.8438,-1.2999,1.2201423333333334,1.292361
201.0,3.8434,-1.2999,1.21978125,1.292361
202.0,3.8429,-1.3,1.2194201666666666,1.292361
203.0,3.8424,-1.2999,1.2190590555555556,1.292361
204.0,3.8418,-1.3,1.2186979722222224,1.292361
205.0,3.8414,-1.2999,1.2183368611111112,1.292361
206.0,3.8409,-1.2999,1.2179757777777778,1.292361
207.0,3.8403,-1.3,1.2176146944444446,1.292361
208.0,3.8402,-1.3,1.2172535833333333,1.292361
209.0,3.8398,-1.2999,1.2168924722222223,1.292361
210.0,3.8391,-1.2999,1.216531388888889,1.292361
211.0,3.8386,-1.2999,1.2161703055555557,1.292361
212.0,3.8385,-1.3,1.2158092222222223,1.292361
213.0,3.8378,-1.2999,1.2154481111111113,1.292361
214.0,3.8374,-1.2999,1.2150870277777779,1.292361
215.0,3.8371,-1.2999,1.2147259444444445,1.292361
216.0,3.8364,-1.2999,1.214364861111111,1.292361
217.0,3.8362,-1.3,1.214003777777778,1.292361
218.0,3.8359,-1.2999,1.2136426666666669,1.292361
219.0,3.8353,-1.3,1.2132815833333335,1.292361
220.0,3.8348,-1.3,1.2129204722222222,1.292361
221.0,3.8346,-1.3,1.2125593611111112,1.292361
222.0,3.834,-1.2999,1.2121982500000001,1.292361
223.0,3.8333,-1.3,1.2118371666666667,1.292361
224.0,3.8332,-1.3,1.2114760555555557,1.292361
225.0,3.8326,-1.3,1.2111149444444445,1.292361
226.0,3.8323,-1.2999,1.2107538333333334,1.292361
227.0,3.8319,-1.2999,1.21039275,1.292361
228.0,3.8316,-1.2999,1.2100316666666668,1.292361
229.0,3.8309,-1.2999,1.2096705833333334,1.292361
230.0,3.8306,-1.2999,1.2093095,1.292361
231.0,3.8301,-1.2999,1.2089484166666669,1.292361
232.0,3.8297,-1.2999,1.2085873333333335,1.292361
233.0,3.8294,-1.2999,1.20822625,1.292361
234.0,3.8288,-1.2999,1.2078651666666667,1.292361
235.0,3.8284,-1.3,1.2075040833333335,1.292361
236.0,3.828,-1.2999,1.2071429722222222,1.292361
237.0,3.8276,-1.3,1.206781888888889,1.292361
238.0,3.827,-1.2999,1.2064207777777778,1.292361
239.0,3.8268,-1.2999,1.2060596944444446,1.292361
240.0,3.8264,-1.2999,1.2056986111111112,1.292361
241.0,3.8258,-1.2999,1.2053375277777778,1.292361
242.0,3.8253,-1.2999,1.2049764444444446,1.292361
243.0,3.8248,-1.3,1.2046153611111112,1.292361
244.0,3.8247,-1.2999,1.20425425,1.292361
245.0,3.8242,-1.2999,1.2038931666666668,1.292361
246.0,3.824,-1.2999,1.2035320833333334,1.292361
247.0,3.8234,-1.2999,1.2031710000000002,1.292361
248.0,3.8232,-1.2999,1.2028099166666668,1.292361
249.0,3.8222,-1.3,1.2024488333333334,1.292361
250.0,3.822,-1.3,1.2020877222222224,1.292361
251.0,3.8215,-1.2999,1.2017266111111111,1.292361
252.0,3.8212,-1.3,1.201365527777778,1.292361
253.0,3.8209,-1.3,1.2010044166666667,1.292361
254.0,3.8205,-1.2999,1.2006433055555557,1.292361
255.0,3.82,-1.2999,1.2002822222222223,1.292361
256.0,3.8195,-1.2999,1.199921138888889,1.292361
257.0,3.8193,-1.2999,1.1995600555555557,1.292361
258.0,3.8188,-1.2999,1.1991989722222223,1.292361
259.0,3.8186,-1.2999,1.1988378888888889,1.292361
260.0,3.8181,-1.2999,1.1984768055555557,1.292361
261.0,3.8176,-1.2999,1.1981157222222223,1.292361
262.0,3.8172,-1.2999,1.197754638888889,1.292361
263.0,3.8168,-1.2999,1.1973935555555557,1.292361
264.0,3.8165,-1.2999,1.1970324722222223,1.292361
265.0,3.816,-1.2999,1.196671388888889,1.292361
266.0,3.8158,-1.3001,1.1963103055555557,1.292361
267.0,3.8151,-1.2999,1.1959491666666668,1.292361
268.0,3.8146,-1.3,1.1955880833333334,1.292361
269.0,3.8143,-1.2999,1.1952269722222222,1.292361
270.0,3.8138,-1.2999,1.194865888888889,1.292361
271.0,3.8134,-1.2998,1.1945048055555556,1.292361
272.0,3.813,-1.3,1.19414375,1.292361
273.0,3.8127,-1.2998,1.193782638888889,1.292361
274.0,3.8123,-1.3,1.1934215833333335,1.292361
275.0,3.8119,-1.3,1.1930604722222222,1.292361
276.0,3.8113,-1.2999,1.1926993611111112,1.292361
277.0,3.8109,-1.3,1.1923382777777778,1.292361
278.0,3.8106,-1.3,1.1919771666666668,1.292361
279.0,3.81,-1.3,1.1916160555555557,1.292361
280.0,3.8097,-1.2998,1.1912549444444445,1.292361
281.0,3.8095,-1.3,1.190893888888889,1.292361
282.0,3.8089,-1.3,1.1905327777777779,1.292361
283.0,3.8086,-1.2998,1.1901716666666666,1.292361
284.0,3.8082,-1.3,1.189810611111111,1.292361
285.0,3.8079,-1.2999,1.1894495,1.292361
286.0,3.8073,-1.2998,1.1890884166666666,1.292361
287.0,3.8069,-1.2999,1.188727361111111,1.292361
288.0,3.8065,-1.2999,1.188366277777778,1.292361
289.0,3.8061,-1.3,1.1880051944444445,1.292361
290.0,3.8057,-1.2999,1.1876440833333335,1.292361
291.0,3.8052,-1.2999,1.187283,1.292361
292.0,3.8052,-1.3,1.1869219166666667,1.292361
293.0,3.8045,-1.3,1.1865608055555557,1.292361
294.0,3.8041,-1.2999,1.1861996944444446,1.292361
295.0,3.8037,-1.2998,1.1858386111111112,1.292361
296.0,3.8034,-1.2999,1.1854775555555557,1.292361
297.0,3.8027,-1.3,1.1851164722222223,1.292361
298.0,3.8026,-1.3,1.1847553611111112,1.292361
299.0,3.8022,-1.2999,1.18439425,1.292361
300.0,3.8018,-1.2999,1.1840331666666668,1.292361
301.0,3.8013,-1.3,1.1836720833333334,1.292361
302.0,3.8011,-1.2999,1.1833109722222224,1.292361
303.0,3.8003,-1.2999,1.182949888888889,1.292361
304.0,3.8003,-1.2998,1.1825888055555556,1.292361
305.0,3.7998,-1.3,1.18222775,1.292361
306.0,3.7993,-1.2998,1.181866638888889,1.292361
307.0,3.7991,-1.2999,1.1815055833333334,1.292361
308.0,3.7987,-1.2999,1.1811445,1.292361
309.0,3.7982,-1.3,1.1807834166666666,1.292361
310.0,3.7976,-1.3,1.1804223055555556,1.292361
311.0,3.7972,-1.2999,1.1800611944444446,1.292361
312.0,3.797,-1.3,1.1797001111111112,1.292361
313.0,3.7967,-1.2999,1.1793390000000001,1.292361
314.0,3.7963,-1.3,1.1789779166666667,1.292361
315.0,3.7958,-1.3,1.1786168055555557,1.292361
316.0,3.7953,-1.3,1.1782556944444444,1.292361
317.0,3.7949,-1.3,1.1778945833333334,1.292361
318.0,3.7946,-1.2999,1.1775334722222224,1.292361
319.0,3.7944,-1.3,1.177172388888889,1.292361
320.0,3.7936,-1.3,1.176811277777778,1.292361
321.0,3.7935,-1.2999,1.1764501666666667,1.292361
322.0,3.7931,-1.3,1.1760890833333333,1.292361
323.0,3.7927,-1.2999,1.1757279722222223,1.292361
324.0,3.7923,-1.2999,1.175366888888889,1.292361
325.0,3.7918,-1.2999,1.1750058055555557,1.292361
326.0,3.7915,-1.2999,1.1746447222222223,1.292361
327.0,3.7908,-1.2999,1.1742836388888889,1.292361
328.0,3.7908,-1.2999,1.1739225555555557,1.292361
329.0,3.7904,-1.2999,1.1735614722222223,1.292361
330.0,3.79,-1.2999,1.173200388888889,1.292361
331.0,3.7896,-1.2999,1.1728393055555557,1.292361
332.0,3.7894,-1.2999,1.1724782222222223,1.292361
333.0,3.7886,-1.2999,1.172117138888889,1.292361
334.0,3.7881,-1.3,1.1717560555555557,1.292361
335.0,3.7878,-1.2999,1.1713949444444445,1.292361
336.0,3.7875,-1.3,1.1710338611111113,1.292361
337.0,3.7873,-1.3,1.17067275,1.292361
338.0,3.7865,-1.3,1.170311638888889,1.292361
339.0,3.7864,-1.2999,1.169950527777778,1.292361
340.0,3.7858,-1.2999,1.1695894444444446,1.292361
341.0,3.7854,-1.2999,1.1692283611111112,1.292361
342.0,3.7856,-1.2999,1.1688672777777778,1.292361
343.0,3.7848,-1.2999,1.1685061944444446,1.292361
344.0,3.7842,-1.3001,1.1681451111111112,1.292361
345.0,3.7842,-1.3,1.1677839722222223,1.292361
346.0,3.7837,-1.2999,1.1674228611111113,1.292361
347.0,3.7831,-1.2999,1.1670617777777779,1.292361
348.0,3.7829,-1.3,1.1667006944444445,1.292361
349.0,3.7827,-1.2999,1.1663395833333334,1.292361
350.0,3.7822,-1.2999,1.1659785,1.292361
351.0,3.7817,-1.3,1.1656174166666666,1.292361
352.0,3.7811,-1.3,1.1652563055555556,1.292361
353.0,3.781,-1.2999,1.1648951944444446,1.292361
354.0,3.7804,-1.2999,1.1645341111111112,1.292361
355.0,3.7803,-1.2999,1.1641730277777778,1.292361
356.0,3.7797,-1.2999,1.1638119444444446,1.292361
357.0,3.7791,-1.2999,1.1634508611111112,1.292361
358.0,3.7791,-1.3,1.1630897777777778,1.292361
359.0,3.7787,-1.3,1.1627286666666667,1.292361
360.0,3.7781,-1.2999,1.1623675555555557,1.292361
361.0,3.7778,-1.2999,1.1620064722222223,1.292361
362.0,3.7773,-1.2999,1.161645388888889,1.292361
363.0,3.7771,-1.2998,1.1612843055555557,1.292361
364.0,3.7769,-1.2999,1.1609232500000002,1.292361
365.0,3.7764,-1.3,1.1605621666666668,1.292361
366.0,3.7758,-1.2999,1.1602010555555555,1.292361
367.0,3.7755,-1.2999,1.1598399722222223,1.292361
368.0,3.7751,-1.2998,1.159478888888889,1.292361
369.0,3.7748,-1.3,1.1591178333333334,1.292361
370.0,3.7746,-1.2999,1.1587567222222224,1.292361
371.0,3.774,-1.3,1.158395638888889,1.292361
372.0,3.7737,-1.3,1.158034527777778,1.292361
373.0,3.7733,-1.2999,1.1576734166666667,1.292361
374.0,3.7729,-1.2999,1.1573123333333335,1.292361
375.0,3.7726,-1.3001,1.15695125,1.292361
376.0,3.7723,-1.2998,1.1565901111111112,1.292361
377.0,3.7716,-1.2999,1.1562290555555557,1.292361
378.0,3.7711,-1.3,1.1558679722222223,1.292361
379.0,3.7709,-1.3,1.1555068611111112,1.292361
380.0,3.7704,-1.2999,1.15514575,1.292361
381.0,3.77,-1.2999,1.1547846666666668,1.292361
382.0,3.7697,-1.3,1.1544235833333334,1.292361
383.0,3.7694,-1.2998,1.1540624722222224,1.292361
384.0,3.769,-1.2998,1.1537014166666668,1.292361
385.0,3.7685,-1.2999,1.1533403611111113,1.292361
386.0,3.7685,-1.3,1.1529792777777779,1.292361
387.0,3.7678,-1.3,1.1526181666666668,1.292361
388.0,3.7674,-1.2999,1.1522570555555556,1.292361
389.0,3.7672,-1.3,1.1518959722222224,1.292361
390.0,3.7667,-1.3,1.1515348611111111,1.292361
391.0,3.7663,-1.3,1.15117375,1.292361
392.0,3.7659,-1.3001,1.150812638888889,1.292361
393.0,3.7655,-1.2999,1.1504515,1.292361
394.0,3.7649,-1.2998,1.1500904166666668,1.292361
395.0,3.7648,-1.2999,1.1497293611111112,1.292361
396.0,3.7643,-1.2999,1.1493682777777778,1.292361
397.0,3.7639,-1.3,1.1490071944444444,1.292361
398.0,3.7635,-1.3,1.1486460833333334,1.292361
399.0,3.7632,-1.3,1.1482849722222224,1.292361
400.0,3.763,-1.2999,1.147923861111111,1.292361
401.0,3.7626,-1.3,1.147562777777778,1.292361
402.0,3.7621,-1.3,1.1472016666666667,1.292361
403.0,3.7623,-1.3,1.1468405555555556,1.292361
404.0,3.7613,-1.3,1.1464794444444446,1.292361
405.0,3.7609,-1.3,1.1461183333333334,1.292361
406.0,3.7606,-1.2999,1.1457572222222223,1.292361
407.0,3.7602,-1.2998,1.145396138888889,1.292361
408.0,3.7598,-1.3,1.1450350833333334,1.292361
409.0,3.7593,-1.3001,1.1446739722222223,1.292361
410.0,3.759,-1.3,1.1443128333333334,1.292361
411.0,3.7586,-1.3,1.1439517222222224,1.292361
412.0,3.7581,-1.3,1.1435906111111112,1.292361
413.0,3.7579,-1.3,1.1432295000000001,1.292361
414.0,3.7574,-1.3,1.1428683888888889,1.292361
415.0,3.7572,-1.2999,1.1425072777777778,1.292361
416.0,3.7569,-1.2999,1.1421461944444444,1.292361
