Test_Time(s),Voltage(V),Current(A),remaining capacity,maximum capacity
0.0,4.0795,-1.3009,1.853020194444445,1.853020194444445
1.0,4.0579,-1.3001,1.852658833333334,1.853020194444445
2.0,4.0532,-1.3002,1.8522976944444451,1.853020194444445
3.0,4.0506,-1.3002,1.8519365277777784,1.853020194444445
4.0,4.0481,-1.3001,1.8515753611111119,1.853020194444445
5.0,4.0456,-1.3,1.851214222222223,1.853020194444445
6.0,4.0439,-1.3001,1.8508531111111117,1.853020194444445
7.0,4.0422,-1.3001,1.8504919722222228,1.853020194444445
8.0,4.0404,-1.3001,1.850130833333334,1.853020194444445
9.0,4.0389,-1.3001,1.849769694444445,1.853020194444445
10.0,4.0373,-1.3002,1.8494085555555562,1.853020194444445
11.0,4.036,-1.3001,1.8490473888888896,1.853020194444445
12.0,4.0348,-1.3002,1.8486862500000008,1.853020194444445
13.0,4.0333,-1.3001,1.848325083333334,1.853020194444445
14.0,4.0323,-1.3001,1.8479639444444451,1.853020194444445
15.0,4.0311,-1.3001,1.8476028055555562,1.853020194444445
16.0,4.03,-1.3001,1.8472416666666673,1.853020194444445
17.0,4.0284,-1.3002,1.8468805277777784,1.853020194444445
18.0,4.0276,-1.3001,1.8465193611111117,1.853020194444445
19.0,4.0266,-1.3002,1.8461582222222228,1.853020194444445
20.0,4.0256,-1.3001,1.8457970555555563,1.853020194444445
21.0,4.0246,-1.3002,1.8454359166666674,1.853020194444445
22.0,4.0238,-1.3001,1.8450747500000007,1.853020194444445
23.0,4.023,-1.3001,1.8447136111111118,1.853020194444445
24.0,4.0218,-1.3001,1.8443524722222229,1.853020194444445
25.0,4.0208,-1.3002,1.843991333333334,1.853020194444445
26.0,4.02,-1.3002,1.8436301666666672,1.853020194444445
27.0,4.0191,-1.3001,1.8432690000000007,1.853020194444445
28.0,4.0183,-1.3002,1.8429078611111118,1.853020194444445
29.0,4.0174,-1.3001,1.842546694444445,1.853020194444445
30.0,4.0165,-1.3001,1.8421855555555562,1.853020194444445
31.0,4.0159,-1.3002,1.8418244166666673,1.853020194444445
32.0,4.0152,-1.3001,1.8414632500000006,1.853020194444445
33.0,4.0143,-1.3001,1.8411021111111117,1.853020194444445
34.0,4.0135,-1.3001,1.8407409722222228,1.853020194444445
35.0,4.0124,-1.3001,1.8403798333333339,1.853020194444445
36.0,4.0117,-1.3001,1.8400186944444452,1.853020194444445
37.0,4.0109,-1.3001,1.8396575555555563,1.853020194444445
38.0,4.0104,-1.3001,1.8392964166666674,1.853020194444445
39.0,4.0095,-1.3001,1.8389352777777785,1.853020194444445
40.0,4.0092,-1.3001,1.8385741388888897,1.853020194444445
41.0,4.0083,-1.3001,1.8382130000000008,1.853020194444445
42.0,4.0075,-1.3001,1.8378518611111119,1.853020194444445
43.0,4.0071,-1.3002,1.837490722222223,1.853020194444445
44.0,4.0063,-1.3001,1.8371295555555562,1.853020194444445
45.0,4.0056,-1.3001,1.8367684166666673,1.853020194444445
46.0,4.0047,-1.3001,1.8364072777777785,1.853020194444445
47.0,4.0042,-1.3001,1.8360461388888896,1.853020194444445
48.0,4.0035,-1.3001,1.8356850000000007,1.853020194444445
49.0,4.0029,-1.3001,1.8353238611111118,1.853020194444445
50.0,4.0021,-1.3001,1.834962722222223,1.853020194444445
51.0,4.0018,-1.3001,1.834601583333334,1.853020194444445
52.0,4.0009,-1.3001,1.8342404444444451,1.853020194444445
53.0,4.0006,-1.3001,1.8338793055555562,1.853020194444445
54.0,3.9997,-1.3001,1.8335181666666673,1.853020194444445
55.0,3.9993,-1.3001,1.8331570277777784,1.853020194444445
56.0,3.9987,-1.3001,1.8327958888888896,1.853020194444445
57.0,3.9979,-1.3001,1.8324347500000007,1.853020194444445
58.0,3.9973,-1.3001,1.8320736111111118,1.853020194444445
59.0,3.9965,-1.3001,1.8317124722222229,1.853020194444445
60.0,3.9959,-1.3001,1.831351333333334,1.853020194444445
61.0,3.9956,-1.3001,1.830990194444445,1.853020194444445
62.0,3.995,-1.3001,1.8306290555555562,1.853020194444445
63.0,3.9947,-1.3001,1.8302679166666673,1.853020194444445
64.0,3.994,-1.3,1.8299067777777784,1.853020194444445
65.0,3.9936,-1.3001,1.8295456666666674,1.853020194444445
66.0,3.9926,-1.3001,1.8291845277777785,1.853020194444445
67.0,3.9922,-1.3002,1.8288233888888896,1.853020194444445
68.0,3.9919,-1.3001,1.8284622222222229,1.853020194444445
69.0,3.9911,-1.3,1.828101083333334,1.853020194444445
70.0,3.9907,-1.3002,1.827739972222223,1.853020194444445
71.0,3.99,-1.3001,1.8273788055555562,1.853020194444445
72.0,3.9895,-1.3001,1.8270176666666673,1.853020194444445
73.0,3.9889,-1.3002,1.8266565277777784,1.853020194444445
74.0,3.9884,-1.3002,1.8262953611111117,1.853020194444445
75.0,3.9882,-1.3001,1.8259341944444452,1.853020194444445
76.0,3.9876,-1.3001,1.8255730555555563,1.853020194444445
77.0,3.9867,-1.3001,1.8252119166666674,1.853020194444445
78.0,3.9862,-1.3001,1.8248507777777785,1.853020194444445
79.0,3.9859,-1.3001,1.8244896388888896,1.853020194444445
80.0,3.9854,-1.3001,1.8241285000000007,1.853020194444445
81.0,3.9851,-1.3002,1.8237673611111118,1.853020194444445
82.0,3.9847,-1.3002,1.823406194444445,1.853020194444445
83.0,3.9841,-1.3002,1.8230450277777783,1.853020194444445
84.0,3.9836,-1.3002,1.8226838611111118,1.853020194444445
85.0,3.983,-1.3001,1.822322694444445,1.853020194444445
86.0,3.9826,-1.3001,1.8219615555555562,1.853020194444445
87.0,3.9821,-1.3001,1.8216004166666673,1.853020194444445
88.0,3.9818,-1.3001,1.8212392777777784,1.853020194444445
89.0,3.9811,-1.3001,1.8208781388888895,1.853020194444445
90.0,3.9807,-1.3001,1.8205170000000006,1.853020194444445
91.0,3.9804,-1.3001,1.8201558611111117,1.853020194444445
92.0,3.9799,-1.3001,1.8197947222222228,1.853020194444445
93.0,3.9793,-1.3001,1.819433583333334,1.853020194444445
94.0,3.9788,-1.3001,1.819072444444445,1.853020194444445
95.0,3.9784,-1.3001,1.8187113055555562,1.853020194444445
96.0,3.978,-1.3001,1.8183501666666673,1.853020194444445
97.0,3.9776,-1.3001,1.8179890277777784,1.853020194444445
98.0,3.9771,-1.3001,1.8176278888888895,1.853020194444445
99.0,3.9766,-1.3001,1.8172667500000006,1.853020194444445
100.0,3.9763,-1.3002,1.8169056111111117,1.853020194444445
101.0,3.9758,-1.3001,1.8165444444444452,1.853020194444445
102.0,3.9754,-1.3001,1.8161833055555563,1.853020194444445
103.0,3.975,-1.3001,1.8158221666666674,1.853020194444445
104.0,3.9746,-1.3001,1.8154610277777785,1.853020194444445
105.0,3.974,-1.3,1.8150998888888896,1.853020194444445
106.0,3.9735,-1.3001,1.8147387777777784,1.853020194444445
107.0,3.9732,-1.3001,1.8143776388888895,1.853020194444445
108.0,3.9727,-1.3002,1.8140165000000006,1.853020194444445
109.0,3.9723,-1.3001,1.813655333333334,1.853020194444445
110.0,3.9719,-1.3001,1.8132941944444452,1.853020194444445
111.0,3.9716,-1.3001,1.8129330555555563,1.853020194444445
112.0,3.9714,-1.3001,1.8125719166666674,1.853020194444445
113.0,3.9709,-1.3001,1.8122107777777785,1.853020194444445
114.0,3.9703,-1.3001,1.8118496388888896,1.853020194444445
115.0,3.9699,-1.3001,1.8114885000000007,1.853020194444445
116.0,3.9695,-1.3,1.8111273611111118,1.853020194444445
117.0,3.9691,-1.3001,1.8107662500000006,1.853020194444445
118.0,3.9689,-1.3001,1.8104051111111117,1.853020194444445
119.0,3.9682,-1.3001,1.8100439722222228,1.853020194444445
120.0,3.9682,-1.3001,1.809682833333334,1.853020194444445
121.0,3.9674,-1.3002,1.809321694444445,1.853020194444445
122.0,3.9672,-1.3001,1.8089605277777785,1.853020194444445
123.0,3.9666,-1.3001,1.8085993888888896,1.853020194444445
124.0,3.9663,-1.3001,1.8082382500000007,1.853020194444445
125.0,3.9662,-1.3001,1.8078771111111118,1.853020194444445
126.0,3.9658,-1.3002,1.807515972222223,1.853020194444445
127.0,3.9656,-1.3,1.8071548055555562,1.853020194444445
128.0,3.9651,-1.3,1.8067936944444452,1.853020194444445
129.0,3.9644,-1.3001,1.806432583333334,1.853020194444445
130.0,3.9642,-1.3001,1.806071444444445,1.853020194444445
131.0,3.964,-1.3001,1.8057103055555561,1.853020194444445
132.0,3.9634,-1.3001,1.8053491666666672,1.853020194444445
133.0,3.9633,-1.3002,1.8049880277777783,1.853020194444445
134.0,3.963,-1.3002,1.8046268611111118,1.853020194444445
135.0,3.9624,-1.3001,1.804265694444445,1.853020194444445
136.0,3.9621,-1.3001,1.8039045555555562,1.853020194444445
137.0,3.9616,-1.3001,1.8035434166666673,1.853020194444445
138.0,3.9613,-1.3001,1.8031822777777784,1.853020194444445
139.0,3.9609,-1.3001,1.8028211388888895,1.853020194444445
140.0,3.9606,-1.3001,1.8024600000000006,1.853020194444445
141.0,3.9605,-1.3001,1.8020988611111117,1.853020194444445
142.0,3.96,-1.3001,1.8017377222222228,1.853020194444445
143.0,3.9595,-1.3001,1.801376583333334,1.853020194444445
144.0,3.9594,-1.3001,1.801015444444445,1.853020194444445
145.0,3.959,-1.3001,1.8006543055555562,1.853020194444445
146.0,3.9585,-1.3002,1.8002931666666673,1.853020194444445
147.0,3.9582,-1.3001,1.7999320000000005,1.853020194444445
148.0,3.9579,-1.3002,1.7995708611111119,1.853020194444445
149.0,3.9577,-1.3001,1.7992096944444451,1.853020194444445
150.0,3.9569,-1.3002,1.7988485555555562,1.853020194444445
151.0,3.9568,-1.3001,1.7984873888888895,1.853020194444445
152.0,3.9566,-1.3001,1.7981262500000006,1.853020194444445
153.0,3.956,-1.3002,1.7977651111111117,1.853020194444445
154.0,3.9558,-1.3001,1.7974039444444452,1.853020194444445
155.0,3.9556,-1.3,1.7970428055555563,1.853020194444445
156.0,3.9552,-1.3001,1.796681694444445,1.853020194444445
157.0,3.9549,-1.3001,1.7963205555555561,1.853020194444445
158.0,3.9544,-1.3001,1.7959594166666673,1.853020194444445
159.0,3.9538,-1.3001,1.7955982777777784,1.853020194444445
160.0,3.9536,-1.3001,1.7952371388888895,1.853020194444445
161.0,3.9535,-1.3,1.7948760000000006,1.853020194444445
162.0,3.9531,-1.3002,1.7945148888888895,1.853020194444445
163.0,3.9526,-1.3002,1.7941537222222228,1.853020194444445
164.0,3.9526,-1.3001,1.7937925555555563,1.853020194444445
165.0,3.9521,-1.3001,1.7934314166666674,1.853020194444445
166.0,3.9519,-1.3001,1.7930702777777785,1.853020194444445
167.0,3.9518,-1.3001,1.7927091388888896,1.853020194444445
168.0,3.9511,-1.3001,1.7923480000000007,1.853020194444445
169.0,3.951,-1.3001,1.7919868611111118,1.853020194444445
170.0,3.9507,-1.3002,1.791625722222223,1.853020194444445
171.0,3.9506,-1.3001,1.7912645555555562,1.853020194444445
172.0,3.95,-1.3002,1.7909034166666673,1.853020194444445
173.0,3.9499,-1.3002,1.7905422500000006,1.853020194444445
174.0,3.9494,-1.3001,1.790181083333334,1.853020194444445
175.0,3.9492,-1.3002,1.7898199444444451,1.853020194444445
176.0,3.9488,-1.3001,1.7894587777777784,1.853020194444445
177.0,3.9485,-1.3001,1.7890976388888895,1.853020194444445
178.0,3.9483,-1.3001,1.7887365000000006,1.853020194444445
179.0,3.9478,-1.3001,1.7883753611111117,1.853020194444445
180.0,3.9477,-1.3002,1.7880142222222228,1.853020194444445
181.0,3.9473,-1.3001,1.787653055555556,1.853020194444445
182.0,3.947,-1.3001,1.7872919166666672,1.853020194444445
183.0,3.9467,-1.3001,1.7869307777777783,1.853020194444445
184.0,3.9462,-1.3001,1.7865696388888894,1.853020194444445
185.0,3.9459,-1.3002,1.7862085000000008,1.853020194444445
186.0,3.9458,-1.3002,1.785847333333334,1.853020194444445
187.0,3.9453,-1.3002,1.7854861666666673,1.853020194444445
188.0,3.9451,-1.3002,1.7851250000000007,1.853020194444445
189.0,3.945,-1.3001,1.784763833333334,1.853020194444445
190.0,3.9445,-1.3001,1.784402694444445,1.853020194444445
191.0,3.9444,-1.3001,1.7840415555555562,1.853020194444445
192.0,3.9442,-1.3002,1.7836804166666673,1.853020194444445
193.0,3.9438,-1.3001,1.7833192500000006,1.853020194444445
194.0,3.9435,-1.3,1.7829581111111117,1.853020194444445
195.0,3.943,-1.3001,1.7825970000000007,1.853020194444445
196.0,3.9427,-1.3001,1.7822358611111118,1.853020194444445
197.0,3.9424,-1.3002,1.7818747222222229,1.853020194444445
198.0,3.9424,-1.3001,1.7815135555555561,1.853020194444445
199.0,3.9422,-1.3001,1.7811524166666672,1.853020194444445
200.0,3.9417,-1.3001,1.7807912777777783,1.853020194444445
201.0,3.9414,-1.3001,1.7804301388888895,1.853020194444445
202.0,3.9413,-1.3,1.7800690000000006,1.853020194444445
203.0,3.9406,-1.3001,1.7797078888888895,1.853020194444445
204.0,3.9404,-1.3001,1.7793467500000006,1.853020194444445
205.0,3.9403,-1.3,1.7789856111111118,1.853020194444445
206.0,3.9398,-1.3002,1.7786245000000007,1.853020194444445
207.0,3.9395,-1.3001,1.778263333333334,1.853020194444445
208.0,3.9394,-1.3001,1.777902194444445,1.853020194444445
209.0,3.9394,-1.3001,1.7775410555555562,1.853020194444445
210.0,3.9387,-1.3001,1.7771799166666673,1.853020194444445
211.0,3.9387,-1.3001,1.7768187777777784,1.853020194444445
212.0,3.9382,-1.3001,1.7764576388888895,1.853020194444445
213.0,3.938,-1.3001,1.7760965000000006,1.853020194444445
214.0,3.9379,-1.3002,1.7757353611111117,1.853020194444445
215.0,3.9374,-1.3,1.775374194444445,1.853020194444445
216.0,3.9371,-1.3001,1.775013083333334,1.853020194444445
217.0,3.9371,-1.3002,1.774651944444445,1.853020194444445
218.0,3.9365,-1.3001,1.7742907777777783,1.853020194444445
219.0,3.9366,-1.3001,1.7739296388888894,1.853020194444445
220.0,3.9362,-1.3002,1.7735685000000005,1.853020194444445
221.0,3.9359,-1.3001,1.773207333333334,1.853020194444445
222.0,3.9355,-1.3002,1.7728461944444451,1.853020194444445
223.0,3.9352,-1.3001,1.7724850277777784,1.853020194444445
224.0,3.935,-1.3001,1.7721238888888895,1.853020194444445
225.0,3.9347,-1.3001,1.7717627500000006,1.853020194444445
226.0,3.9344,-1.3002,1.7714016111111117,1.853020194444445
227.0,3.9341,-1.3002,1.771040444444445,1.853020194444445
228.0,3.9336,-1.3002,1.7706792777777784,1.853020194444445
229.0,3.9334,-1.3,1.7703181111111117,1.853020194444445
230.0,3.9336,-1.3002,1.7699570000000007,1.853020194444445
231.0,3.9331,-1.3001,1.769595833333334,1.853020194444445
232.0,3.9329,-1.3002,1.769234694444445,1.853020194444445
233.0,3.9327,-1.3002,1.7688735277777785,1.853020194444445
234.0,3.9324,-1.3002,1.7685123611111118,1.853020194444445
235.0,3.9318,-1.3001,1.768151194444445,1.853020194444445
236.0,3.9316,-1.3001,1.7677900555555561,1.853020194444445
237.0,3.9317,-1.3001,1.7674289166666672,1.853020194444445
238.0,3.9314,-1.3001,1.7670677777777783,1.853020194444445
239.0,3.931,-1.3001,1.7667066388888895,1.853020194444445
240.0,3.9305,-1.3001,1.7663455000000006,1.853020194444445
241.0,3.9305,-1.3001,1.7659843611111117,1.853020194444445
242.0,3.9303,-1.3001,1.7656232222222228,1.853020194444445
243.0,3.93,-1.3001,1.765262083333334,1.853020194444445
244.0,3.9296,-1.3001,1.764900944444445,1.853020194444445
245.0,3.9294,-1.3001,1.7645398055555561,1.853020194444445
246.0,3.9292,-1.3001,1.7641786666666672,1.853020194444445
247.0,3.9288,-1.3001,1.7638175277777783,1.853020194444445
248.0,3.9287,-1.3,1.7634563888888894,1.853020194444445
249.0,3.9283,-1.3002,1.7630952777777784,1.853020194444445
250.0,3.9282,-1.3001,1.7627341111111117,1.853020194444445
251.0,3.9278,-1.3002,1.7623729722222228,1.853020194444445
252.0,3.9275,-1.3001,1.7620118055555563,1.853020194444445
253.0,3.9275,-1.3001,1.7616506666666674,1.853020194444445
254.0,3.927,-1.3001,1.7612895277777785,1.853020194444445
255.0,3.927,-1.3001,1.7609283888888896,1.853020194444445
256.0,3.9268,-1.3001,1.7605672500000007,1.853020194444445
257.0,3.9263,-1.3001,1.7602061111111118,1.853020194444445
258.0,3.9261,-1.3001,1.759844972222223,1.853020194444445
259.0,3.9257,-1.3001,1.759483833333334,1.853020194444445
260.0,3.9253,-1.3001,1.7591226944444451,1.853020194444445
261.0,3.9252,-1.3002,1.7587615555555562,1.853020194444445
262.0,3.9253,-1.3002,1.7584003888888895,1.853020194444445
263.0,3.925,-1.3001,1.7580392222222228,1.853020194444445
264.0,3.9245,-1.3,1.7576780833333339,1.853020194444445
265.0,3.9243,-1.3001,1.7573169722222228,1.853020194444445
266.0,3.924,-1.3002,1.756955833333334,1.853020194444445
267.0,3.924,-1.3001,1.7565946666666674,1.853020194444445
268.0,3.9234,-1.3002,1.7562335277777783,1.853020194444445
269.0,3.9232,-1.3002,1.7558723611111118,1.853020194444445
270.0,3.9229,-1.3002,1.755511194444445,1.853020194444445
271.0,3.9227,-1.3001,1.7551500277777785,1.853020194444445
272.0,3.9224,-1.3001,1.7547888888888896,1.853020194444445
273.0,3.9219,-1.3,1.7544277500000007,1.853020194444445
274.0,3.922,-1.3001,1.7540666388888895,1.853020194444445
275.0,3.9215,-1.3001,1.7537055000000006,1.853020194444445
276.0,3.9216,-1.3001,1.7533443611111117,1.853020194444445
277.0,3.9212,-1.3001,1.7529832222222228,1.853020194444445
278.0,3.921,-1.3001,1.752622083333334,1.853020194444445
279.0,3.9208,-1.3001,1.752260944444445,1.853020194444445
280.0,3.9207,-1.3001,1.7518998055555561,1.853020194444445
281.0,3.9203,-1.3002,1.7515386666666672,1.853020194444445
282.0,3.9199,-1.3001,1.7511775000000007,1.853020194444445
283.0,3.9196,-1.3001,1.7508163611111118,1.853020194444445
284.0,3.9195,-1.3001,1.750455222222223,1.853020194444445
285.0,3.9192,-1.3001,1.750094083333334,1.853020194444445
286.0,3.919,-1.3001,1.7497329444444452,1.853020194444445
287.0,3.9188,-1.3001,1.7493718055555563,1.853020194444445
288.0,3.9184,-1.3002,1.7490106666666674,1.853020194444445
289.0,3.9183,-1.3001,1.7486495000000006,1.853020194444445
290.0,3.9181,-1.3001,1.7482883611111117,1.853020194444445
291.0,3.918,-1.3001,1.7479272222222229,1.853020194444445
292.0,3.9174,-1.3001,1.747566083333334,1.853020194444445
293.0,3.9172,-1.3002,1.747204944444445,1.853020194444445
294.0,3.9169,-1.3001,1.7468437777777783,1.853020194444445
295.0,3.9168,-1.3002,1.7464826388888894,1.853020194444445
296.0,3.9165,-1.3001,1.746121472222223,1.853020194444445
297.0,3.9163,-1.3002,1.745760333333334,1.853020194444445
298.0,3.916,-1.3,1.7453991666666673,1.853020194444445
299.0,3.9159,-1.3002,1.7450380555555562,1.853020194444445
300.0,3.9157,-1.3003,1.7446768888888895,1.853020194444445
301.0,3.9155,-1.3001,1.7443156944444451,1.853020194444445
302.0,3.9152,-1.3001,1.7439545555555562,1.853020194444445
303.0,3.9148,-1.3002,1.7435934166666673,1.853020194444445
304.0,3.9145,-1.3001,1.7432322500000006,1.853020194444445
305.0,3.9141,-1.3,1.7428711111111117,1.853020194444445
306.0,3.9141,-1.3001,1.7425100000000007,1.853020194444445
307.0,3.9142,-1.3002,1.7421488611111118,1.853020194444445
308.0,3.9136,-1.3001,1.741787694444445,1.853020194444445
309.0,3.9132,-1.3002,1.7414265555555561,1.853020194444445
310.0,3.9132,-1.3002,1.7410653888888896,1.853020194444445
311.0,3.9129,-1.3002,1.7407042222222229,1.853020194444445
312.0,3.9126,-1.3001,1.7403430555555561,1.853020194444445
313.0,3.9125,-1.3001,1.7399819166666672,1.853020194444445
314.0,3.9121,-1.3001,1.7396207777777783,1.853020194444445
315.0,3.9117,-1.3002,1.7392596388888895,1.853020194444445
316.0,3.9117,-1.3001,1.738898472222223,1.853020194444445
317.0,3.9115,-1.3001,1.738537333333334,1.853020194444445
318.0,3.9113,-1.3001,1.7381761944444452,1.853020194444445
319.0,3.9111,-1.3001,1.7378150555555563,1.853020194444445
320.0,3.9107,-1.3002,1.7374539166666674,1.853020194444445
321.0,3.9104,-1.3001,1.7370927500000006,1.853020194444445
322.0,3.9104,-1.3001,1.7367316111111117,1.853020194444445
323.0,3.9101,-1.3001,1.7363704722222228,1.853020194444445
324.0,3.9098,-1.3001,1.736009333333334,1.853020194444445
325.0,3.9097,-1.3001,1.735648194444445,1.853020194444445
326.0,3.9092,-1.3001,1.7352870555555562,1.853020194444445
327.0,3.9093,-1.3001,1.7349259166666673,1.853020194444445
328.0,3.9088,-1.3,1.7345647777777784,1.853020194444445
329.0,3.9085,-1.3001,1.7342036666666674,1.853020194444445
330.0,3.9083,-1.3001,1.7338425277777785,1.853020194444445
331.0,3.9082,-1.3001,1.7334813888888896,1.853020194444445
332.0,3.9079,-1.3001,1.7331202500000007,1.853020194444445
333.0,3.9077,-1.3001,1.7327591111111118,1.853020194444445
334.0,3.9075,-1.3002,1.732397972222223,1.853020194444445
335.0,3.9072,-1.3001,1.7320368055555562,1.853020194444445
336.0,3.9071,-1.3002,1.7316756666666673,1.853020194444445
337.0,3.9068,-1.3001,1.7313145000000005,1.853020194444445
338.0,3.9067,-1.3002,1.7309533611111116,1.853020194444445
339.0,3.9064,-1.3002,1.7305921944444451,1.853020194444445
340.0,3.9059,-1.3001,1.7302310277777784,1.853020194444445
341.0,3.9059,-1.3002,1.7298698888888895,1.853020194444445
