Test_Time(s),Voltage(V),Current(A),remaining capacity,maximum capacity
0.0,4.0272,-1.2994,1.3615455555555558,1.3615455555555558
1.0,3.9957,-1.2998,1.3611846111111114,1.3615455555555558
2.0,3.9901,-1.2995,1.360823555555556,1.3615455555555558
3.0,3.9865,-1.2996,1.3604625833333335,1.3615455555555558
4.0,3.9832,-1.2994,1.3601015833333336,1.3615455555555558
5.0,3.9807,-1.2997,1.359740638888889,1.3615455555555558
6.0,3.9784,-1.2996,1.3593796111111114,1.3615455555555558
7.0,3.9764,-1.2996,1.3590186111111113,1.3615455555555558
8.0,3.9747,-1.2995,1.3586576111111113,1.3615455555555558
9.0,3.9726,-1.2993,1.358296638888889,1.3615455555555558
10.0,3.9711,-1.2995,1.3579357222222224,1.3615455555555558
11.0,3.9694,-1.2995,1.3575747500000002,1.3615455555555558
12.0,3.9678,-1.2995,1.357213777777778,1.3615455555555558
13.0,3.9666,-1.2994,1.3568528055555558,1.3615455555555558
14.0,3.9649,-1.2996,1.3564918611111114,1.3615455555555558
15.0,3.9638,-1.2996,1.3561308611111114,1.3615455555555558
16.0,3.9622,-1.2995,1.3557698611111113,1.3615455555555558
17.0,3.961,-1.2996,1.355408888888889,1.3615455555555558
18.0,3.9601,-1.2993,1.355047888888889,1.3615455555555558
19.0,3.9589,-1.2996,1.3546869722222223,1.3615455555555558
20.0,3.9576,-1.2995,1.3543259722222225,1.3615455555555558
21.0,3.9564,-1.2995,1.3539650000000003,1.3615455555555558
22.0,3.9553,-1.2996,1.353604027777778,1.3615455555555558
23.0,3.9547,-1.2995,1.353243027777778,1.3615455555555558
24.0,3.9533,-1.2995,1.3528820555555559,1.3615455555555558
25.0,3.9522,-1.2995,1.3525210833333337,1.3615455555555558
26.0,3.9514,-1.2994,1.3521601111111115,1.3615455555555558
27.0,3.9504,-1.2994,1.3517991666666669,1.3615455555555558
28.0,3.9492,-1.2994,1.3514382222222225,1.3615455555555558
29.0,3.9484,-1.2995,1.351077277777778,1.3615455555555558
30.0,3.9477,-1.2994,1.3507163055555558,1.3615455555555558
31.0,3.9466,-1.2994,1.3503553611111114,1.3615455555555558
32.0,3.9456,-1.2994,1.3499944166666669,1.3615455555555558
33.0,3.9447,-1.2996,1.3496334722222225,1.3615455555555558
34.0,3.9439,-1.2995,1.3492724722222225,1.3615455555555558
35.0,3.9428,-1.2995,1.3489115000000003,1.3615455555555558
36.0,3.942,-1.2995,1.348550527777778,1.3615455555555558
37.0,3.9413,-1.2994,1.3481895555555559,1.3615455555555558
38.0,3.9406,-1.2995,1.3478286111111113,1.3615455555555558
39.0,3.9397,-1.2993,1.347467638888889,1.3615455555555558
40.0,3.9387,-1.2994,1.3471067222222224,1.3615455555555558
41.0,3.938,-1.2995,1.346745777777778,1.3615455555555558
42.0,3.9375,-1.2995,1.3463848055555558,1.3615455555555558
43.0,3.9365,-1.2994,1.3460238333333336,1.3615455555555558
44.0,3.9353,-1.2993,1.345662888888889,1.3615455555555558
45.0,3.9346,-1.2997,1.3453019722222224,1.3615455555555558
46.0,3.934,-1.2994,1.3449409444444447,1.3615455555555558
47.0,3.9333,-1.2994,1.3445800000000003,1.3615455555555558
48.0,3.9324,-1.2995,1.3442190555555558,1.3615455555555558
49.0,3.9321,-1.2995,1.3438580833333336,1.3615455555555558
50.0,3.9313,-1.2995,1.3434971111111114,1.3615455555555558
51.0,3.9303,-1.2996,1.3431361388888892,1.3615455555555558
52.0,3.9296,-1.2994,1.342775138888889,1.3615455555555558
53.0,3.9288,-1.2996,1.3424141944444448,1.3615455555555558
54.0,3.9283,-1.2996,1.3420531944444447,1.3615455555555558
55.0,3.9274,-1.2994,1.3416921944444447,1.3615455555555558
56.0,3.9267,-1.2995,1.3413312500000003,1.3615455555555558
57.0,3.926,-1.2994,1.340970277777778,1.3615455555555558
58.0,3.9253,-1.2996,1.3406093333333335,1.3615455555555558
59.0,3.9244,-1.2996,1.3402483333333335,1.3615455555555558
60.0,3.924,-1.2996,1.3398873333333337,1.3615455555555558
61.0,3.9232,-1.2994,1.3395263333333336,1.3615455555555558
62.0,3.9225,-1.2994,1.339165388888889,1.3615455555555558
63.0,3.9219,-1.2996,1.3388044444444447,1.3615455555555558
64.0,3.9213,-1.2996,1.3384434444444446,1.3615455555555558
65.0,3.9206,-1.2995,1.3380824444444446,1.3615455555555558
66.0,3.92,-1.2995,1.3377214722222224,1.3615455555555558
67.0,3.9192,-1.2997,1.3373605000000002,1.3615455555555558
68.0,3.9189,-1.2993,1.3369994722222225,1.3615455555555558
69.0,3.9179,-1.2996,1.3366385555555558,1.3615455555555558
70.0,3.9174,-1.2997,1.3362775555555557,1.3615455555555558
71.0,3.9167,-1.2994,1.335916527777778,1.3615455555555558
72.0,3.9161,-1.2994,1.3355555833333335,1.3615455555555558
73.0,3.9155,-1.2994,1.3351946388888891,1.3615455555555558
74.0,3.9149,-1.2996,1.3348336944444448,1.3615455555555558
75.0,3.9141,-1.2995,1.3344726944444447,1.3615455555555558
76.0,3.9136,-1.2994,1.3341117222222225,1.3615455555555558
77.0,3.913,-1.2993,1.333750777777778,1.3615455555555558
78.0,3.9124,-1.2995,1.3333898611111112,1.3615455555555558
79.0,3.9119,-1.2993,1.333028888888889,1.3615455555555558
80.0,3.9113,-1.2996,1.3326679722222226,1.3615455555555558
81.0,3.9104,-1.2995,1.3323069722222225,1.3615455555555558
82.0,3.9102,-1.2994,1.3319460000000003,1.3615455555555558
83.0,3.9095,-1.2994,1.3315850555555557,1.3615455555555558
84.0,3.9088,-1.2994,1.3312241111111114,1.3615455555555558
85.0,3.9083,-1.2995,1.3308631666666668,1.3615455555555558
86.0,3.9078,-1.2994,1.3305021944444446,1.3615455555555558
87.0,3.907,-1.2994,1.3301412500000003,1.3615455555555558
88.0,3.9064,-1.2994,1.3297803055555557,1.3615455555555558
89.0,3.9059,-1.2994,1.3294193611111114,1.3615455555555558
90.0,3.9054,-1.2995,1.3290584166666668,1.3615455555555558
91.0,3.9049,-1.2995,1.3286974444444446,1.3615455555555558
92.0,3.9041,-1.2993,1.3283364722222224,1.3615455555555558
93.0,3.9037,-1.2992,1.3279755555555557,1.3615455555555558
94.0,3.9033,-1.2994,1.3276146666666668,1.3615455555555558
95.0,3.9024,-1.2994,1.3272537222222225,1.3615455555555558
96.0,3.9022,-1.2994,1.326892777777778,1.3615455555555558
97.0,3.9017,-1.2995,1.3265318333333336,1.3615455555555558
98.0,3.9012,-1.2993,1.3261708611111114,1.3615455555555558
99.0,3.9006,-1.2994,1.3258099444444447,1.3615455555555558
100.0,3.8999,-1.2994,1.3254490000000003,1.3615455555555558
101.0,3.8994,-1.2995,1.3250880555555558,1.3615455555555558
102.0,3.8987,-1.2996,1.3247270833333336,1.3615455555555558
103.0,3.8985,-1.2995,1.3243660833333335,1.3615455555555558
104.0,3.8977,-1.2993,1.3240051111111113,1.3615455555555558
105.0,3.8972,-1.2995,1.3236441944444446,1.3615455555555558
106.0,3.8967,-1.2993,1.3232832222222224,1.3615455555555558
107.0,3.8962,-1.2995,1.3229223055555557,1.3615455555555558
108.0,3.8958,-1.2994,1.3225613333333335,1.3615455555555558
109.0,3.8949,-1.2994,1.3222003888888891,1.3615455555555558
110.0,3.8947,-1.2994,1.3218394444444446,1.3615455555555558
111.0,3.8942,-1.2995,1.3214785000000002,1.3615455555555558
112.0,3.8937,-1.2995,1.321117527777778,1.3615455555555558
113.0,3.8933,-1.2996,1.3207565555555558,1.3615455555555558
114.0,3.8926,-1.2994,1.3203955555555558,1.3615455555555558
115.0,3.892,-1.2995,1.3200346111111114,1.3615455555555558
116.0,3.8916,-1.2994,1.3196736388888892,1.3615455555555558
117.0,3.8913,-1.2994,1.3193126944444447,1.3615455555555558
118.0,3.8906,-1.2994,1.3189517500000003,1.3615455555555558
119.0,3.8902,-1.2994,1.3185908055555557,1.3615455555555558
120.0,3.8896,-1.2995,1.3182298611111114,1.3615455555555558
121.0,3.8893,-1.2994,1.3178688888888892,1.3615455555555558
122.0,3.8888,-1.2995,1.3175079444444446,1.3615455555555558
123.0,3.8884,-1.2996,1.3171469722222224,1.3615455555555558
124.0,3.8877,-1.2995,1.3167859722222224,1.3615455555555558
125.0,3.8873,-1.2994,1.3164250000000002,1.3615455555555558
126.0,3.8867,-1.2995,1.3160640555555558,1.3615455555555558
127.0,3.8864,-1.2994,1.3157030833333336,1.3615455555555558
128.0,3.8856,-1.2994,1.315342138888889,1.3615455555555558
129.0,3.8852,-1.2994,1.3149811944444447,1.3615455555555558
130.0,3.8846,-1.2992,1.3146202500000002,1.3615455555555558
131.0,3.8846,-1.2995,1.3142593611111113,1.3615455555555558
132.0,3.884,-1.2993,1.313898388888889,1.3615455555555558
133.0,3.8832,-1.2994,1.3135374722222224,1.3615455555555558
134.0,3.8831,-1.2993,1.313176527777778,1.3615455555555558
135.0,3.8827,-1.2994,1.3128156111111113,1.3615455555555558
136.0,3.8823,-1.2994,1.312454666666667,1.3615455555555558
137.0,3.8818,-1.2994,1.3120937222222224,1.3615455555555558
138.0,3.881,-1.2996,1.311732777777778,1.3615455555555558
139.0,3.8808,-1.2995,1.311371777777778,1.3615455555555558
140.0,3.8802,-1.2994,1.3110108055555558,1.3615455555555558
141.0,3.8799,-1.2996,1.3106498611111113,1.3615455555555558
142.0,3.8793,-1.2995,1.3102888611111114,1.3615455555555558
143.0,3.8789,-1.2994,1.3099278888888892,1.3615455555555558
144.0,3.8787,-1.2994,1.3095669444444447,1.3615455555555558
145.0,3.8781,-1.2996,1.3092060000000003,1.3615455555555558
146.0,3.8776,-1.2994,1.3088450000000003,1.3615455555555558
147.0,3.8771,-1.2996,1.3084840555555557,1.3615455555555558
148.0,3.8765,-1.2994,1.3081230555555559,1.3615455555555558
149.0,3.8763,-1.2995,1.3077621111111113,1.3615455555555558
150.0,3.8758,-1.2995,1.307401138888889,1.3615455555555558
151.0,3.8754,-1.2996,1.307040166666667,1.3615455555555558
152.0,3.8747,-1.2994,1.3066791666666668,1.3615455555555558
153.0,3.8746,-1.2994,1.3063182222222225,1.3615455555555558
154.0,3.874,-1.2995,1.305957277777778,1.3615455555555558
155.0,3.8737,-1.2996,1.3055963055555557,1.3615455555555558
156.0,3.8732,-1.2993,1.3052353055555557,1.3615455555555558
157.0,3.8727,-1.2994,1.3048743888888892,1.3615455555555558
158.0,3.872,-1.2993,1.3045134444444446,1.3615455555555558
159.0,3.8719,-1.2994,1.304152527777778,1.3615455555555558
160.0,3.8714,-1.2995,1.3037915833333336,1.3615455555555558
161.0,3.8709,-1.2994,1.3034306111111114,1.3615455555555558
162.0,3.8705,-1.2994,1.3030696666666668,1.3615455555555558
163.0,3.8701,-1.2994,1.3027087222222224,1.3615455555555558
164.0,3.8698,-1.2994,1.302347777777778,1.3615455555555558
165.0,3.8697,-1.2996,1.3019868333333335,1.3615455555555558
166.0,3.8689,-1.2994,1.3016258333333335,1.3615455555555558
167.0,3.8686,-1.2996,1.3012648888888891,1.3615455555555558
168.0,3.868,-1.2995,1.300903888888889,1.3615455555555558
169.0,3.8678,-1.2996,1.3005429166666669,1.3615455555555558
170.0,3.8672,-1.2995,1.3001819166666668,1.3615455555555558
171.0,3.8667,-1.2994,1.2998209444444446,1.3615455555555558
172.0,3.8663,-1.2993,1.2994600000000003,1.3615455555555558
173.0,3.866,-1.2995,1.2990990833333336,1.3615455555555558
174.0,3.8656,-1.2996,1.2987381111111114,1.3615455555555558
175.0,3.865,-1.2995,1.2983771111111113,1.3615455555555558
176.0,3.8646,-1.2995,1.2980161388888891,1.3615455555555558
177.0,3.8639,-1.2995,1.297655166666667,1.3615455555555558
178.0,3.8637,-1.2994,1.2972941944444447,1.3615455555555558
179.0,3.8636,-1.2994,1.2969332500000001,1.3615455555555558
180.0,3.863,-1.2995,1.2965723055555558,1.3615455555555558
181.0,3.8626,-1.2994,1.2962113333333336,1.3615455555555558
182.0,3.8623,-1.2996,1.295850388888889,1.3615455555555558
183.0,3.8616,-1.2996,1.2954893888888892,1.3615455555555558
184.0,3.8614,-1.2994,1.2951283888888891,1.3615455555555558
185.0,3.861,-1.2993,1.2947674444444446,1.3615455555555558
186.0,3.8606,-1.2995,1.294406527777778,1.3615455555555558
187.0,3.8603,-1.2994,1.294045555555556,1.3615455555555558
188.0,3.8598,-1.2994,1.2936846111111113,1.3615455555555558
189.0,3.8593,-1.2995,1.293323666666667,1.3615455555555558
190.0,3.8592,-1.2997,1.2929626944444448,1.3615455555555558
191.0,3.8586,-1.2994,1.2926016666666669,1.3615455555555558
192.0,3.8581,-1.2995,1.2922407222222225,1.3615455555555558
193.0,3.8579,-1.2994,1.29187975,1.3615455555555558
194.0,3.8574,-1.2994,1.2915188055555558,1.3615455555555558
195.0,3.8572,-1.2994,1.2911578611111114,1.3615455555555558
196.0,3.8567,-1.2995,1.2907969166666668,1.3615455555555558
197.0,3.8563,-1.2996,1.2904359444444446,1.3615455555555558
198.0,3.8558,-1.2995,1.2900749444444446,1.3615455555555558
199.0,3.8554,-1.2996,1.2897139722222224,1.3615455555555558
200.0,3.8548,-1.2994,1.2893529722222223,1.3615455555555558
201.0,3.8547,-1.2994,1.288992027777778,1.3615455555555558
202.0,3.8542,-1.2994,1.2886310833333336,1.3615455555555558
203.0,3.854,-1.2995,1.288270138888889,1.3615455555555558
204.0,3.8535,-1.2995,1.2879091666666669,1.3615455555555558
205.0,3.8531,-1.2994,1.2875481944444447,1.3615455555555558
206.0,3.853,-1.2993,1.2871872500000003,1.3615455555555558
207.0,3.8526,-1.2994,1.2868263333333336,1.3615455555555558
208.0,3.8518,-1.2994,1.286465388888889,1.3615455555555558
209.0,3.8516,-1.2992,1.2861044444444447,1.3615455555555558
210.0,3.8514,-1.2994,1.2857435555555559,1.3615455555555558
211.0,3.8509,-1.2995,1.2853826111111113,1.3615455555555558
212.0,3.8503,-1.2995,1.285021638888889,1.3615455555555558
213.0,3.8499,-1.2994,1.284660666666667,1.3615455555555558
214.0,3.8498,-1.2996,1.2842997222222226,1.3615455555555558
215.0,3.8492,-1.2995,1.2839387222222225,1.3615455555555558
216.0,3.8488,-1.2994,1.2835777500000003,1.3615455555555558
217.0,3.8486,-1.2995,1.2832168055555557,1.3615455555555558
218.0,3.8482,-1.2994,1.2828558333333335,1.3615455555555558
219.0,3.8481,-1.2995,1.2824948888888892,1.3615455555555558
220.0,3.8472,-1.2997,1.282133916666667,1.3615455555555558
221.0,3.8472,-1.2993,1.281772888888889,1.3615455555555558
222.0,3.8466,-1.2994,1.2814119722222224,1.3615455555555558
223.0,3.8466,-1.2994,1.281051027777778,1.3615455555555558
224.0,3.846,-1.2997,1.2806900833333335,1.3615455555555558
225.0,3.8456,-1.2993,1.2803290555555558,1.3615455555555558
226.0,3.8453,-1.2995,1.279968138888889,1.3615455555555558
227.0,3.8448,-1.2996,1.2796071666666669,1.3615455555555558
228.0,3.8442,-1.2995,1.2792461666666668,1.3615455555555558
229.0,3.8441,-1.2995,1.2788851944444446,1.3615455555555558
230.0,3.8437,-1.2994,1.2785242222222224,1.3615455555555558
231.0,3.8433,-1.2995,1.278163277777778,1.3615455555555558
232.0,3.8431,-1.2995,1.2778023055555559,1.3615455555555558
233.0,3.8422,-1.2993,1.2774413333333337,1.3615455555555558
234.0,3.8423,-1.2995,1.277080416666667,1.3615455555555558
235.0,3.8416,-1.2996,1.2767194444444447,1.3615455555555558
236.0,3.8413,-1.2995,1.2763584444444447,1.3615455555555558
237.0,3.8411,-1.2994,1.2759974722222225,1.3615455555555558
238.0,3.8406,-1.2997,1.275636527777778,1.3615455555555558
239.0,3.8403,-1.2995,1.2752755000000002,1.3615455555555558
240.0,3.8398,-1.2994,1.274914527777778,1.3615455555555558
241.0,3.8396,-1.2994,1.2745535833333335,1.3615455555555558
242.0,3.8391,-1.2995,1.2741926388888891,1.3615455555555558
243.0,3.8387,-1.2997,1.273831666666667,1.3615455555555558
244.0,3.8388,-1.2995,1.273470638888889,1.3615455555555558
245.0,3.8383,-1.2995,1.2731096666666668,1.3615455555555558
246.0,3.838,-1.2994,1.2727486944444446,1.3615455555555558
247.0,3.8375,-1.2995,1.2723877500000003,1.3615455555555558
248.0,3.8371,-1.2996,1.272026777777778,1.3615455555555558
249.0,3.8368,-1.2995,1.271665777777778,1.3615455555555558
250.0,3.8364,-1.2995,1.2713048055555558,1.3615455555555558
251.0,3.8363,-1.2994,1.2709438333333336,1.3615455555555558
252.0,3.8356,-1.2995,1.270582888888889,1.3615455555555558
253.0,3.8354,-1.2994,1.2702219166666668,1.3615455555555558
254.0,3.8349,-1.2994,1.2698609722222225,1.3615455555555558
255.0,3.8346,-1.2994,1.269500027777778,1.3615455555555558
256.0,3.8341,-1.2995,1.2691390833333336,1.3615455555555558
257.0,3.8338,-1.2995,1.2687781111111114,1.3615455555555558
258.0,3.8336,-1.2993,1.2684171388888892,1.3615455555555558
259.0,3.8331,-1.2993,1.2680562222222225,1.3615455555555558
260.0,3.833,-1.2995,1.2676953055555558,1.3615455555555558
261.0,3.8323,-1.2995,1.2673343333333336,1.3615455555555558
262.0,3.8321,-1.2996,1.2669733611111114,1.3615455555555558
263.0,3.8319,-1.2996,1.2666123611111113,1.3615455555555558
264.0,3.8314,-1.2996,1.2662513611111113,1.3615455555555558
265.0,3.831,-1.2995,1.2658903611111114,1.3615455555555558
266.0,3.8306,-1.2995,1.265529388888889,1.3615455555555558
267.0,3.8303,-1.2992,1.2651684166666668,1.3615455555555558
268.0,3.8299,-1.2995,1.264807527777778,1.3615455555555558
269.0,3.8296,-1.2995,1.2644465555555557,1.3615455555555558
270.0,3.8292,-1.2994,1.2640855833333335,1.3615455555555558
271.0,3.8289,-1.2994,1.2637246388888892,1.3615455555555558
272.0,3.8287,-1.2994,1.2633636944444446,1.3615455555555558
273.0,3.8283,-1.2996,1.2630027500000003,1.3615455555555558
274.0,3.8279,-1.2994,1.2626417500000002,1.3615455555555558
275.0,3.8276,-1.2994,1.2622808055555557,1.3615455555555558
276.0,3.8274,-1.2995,1.2619198611111113,1.3615455555555558
277.0,3.8266,-1.2995,1.2615588888888891,1.3615455555555558
278.0,3.8265,-1.2995,1.261197916666667,1.3615455555555558
279.0,3.826,-1.2994,1.2608369444444447,1.3615455555555558
280.0,3.8255,-1.2995,1.2604760000000002,1.3615455555555558
281.0,3.8252,-1.2995,1.260115027777778,1.3615455555555558
282.0,3.8251,-1.2997,1.2597540555555558,1.3615455555555558
283.0,3.8246,-1.2993,1.259393027777778,1.3615455555555558
284.0,3.8244,-1.2994,1.2590321111111114,1.3615455555555558
285.0,3.8238,-1.2995,1.2586711666666668,1.3615455555555558
286.0,3.8238,-1.2994,1.2583101944444446,1.3615455555555558
287.0,3.8234,-1.2996,1.2579492500000002,1.3615455555555558
288.0,3.823,-1.2995,1.2575882500000002,1.3615455555555558
289.0,3.8228,-1.2994,1.257227277777778,1.3615455555555558
290.0,3.8225,-1.2993,1.2568663333333336,1.3615455555555558
291.0,3.8218,-1.2994,1.256505416666667,1.3615455555555558
292.0,3.8218,-1.2994,1.2561444722222224,1.3615455555555558
293.0,3.8213,-1.2995,1.255783527777778,1.3615455555555558
294.0,3.8209,-1.2993,1.2554225555555558,1.3615455555555558
295.0,3.8205,-1.2994,1.255061638888889,1.3615455555555558
296.0,3.8202,-1.2995,1.2547006944444448,1.3615455555555558
297.0,3.8198,-1.2996,1.2543397222222223,1.3615455555555558
298.0,3.8197,-1.2994,1.2539787222222225,1.3615455555555558
299.0,3.8193,-1.2995,1.253617777777778,1.3615455555555558
300.0,3.8189,-1.2995,1.2532568055555557,1.3615455555555558
301.0,3.8184,-1.2995,1.2528958333333335,1.3615455555555558
302.0,3.8184,-1.2995,1.2525348611111113,1.3615455555555558
303.0,3.818,-1.2995,1.2521738888888891,1.3615455555555558
304.0,3.8176,-1.2995,1.251812916666667,1.3615455555555558
305.0,3.817,-1.2994,1.2514519444444447,1.3615455555555558
306.0,3.8167,-1.2994,1.2510910000000002,1.3615455555555558
307.0,3.8165,-1.2994,1.2507300555555558,1.3615455555555558
308.0,3.8162,-1.2995,1.2503691111111113,1.3615455555555558
309.0,3.8158,-1.2996,1.250008138888889,1.3615455555555558
310.0,3.8153,-1.2994,1.249647138888889,1.3615455555555558
311.0,3.8153,-1.2994,1.2492861944444447,1.3615455555555558
312.0,3.8147,-1.2992,1.2489252500000003,1.3615455555555558
313.0,3.8143,-1.2996,1.2485643611111112,1.3615455555555558
314.0,3.8141,-1.2994,1.2482033611111114,1.3615455555555558
315.0,3.8135,-1.2995,1.2478424166666668,1.3615455555555558
316.0,3.8133,-1.2994,1.2474814444444446,1.3615455555555558
317.0,3.8131,-1.2994,1.2471205000000003,1.3615455555555558
318.0,3.8126,-1.2994,1.2467595555555557,1.3615455555555558
319.0,3.8122,-1.2994,1.2463986111111114,1.3615455555555558
320.0,3.8118,-1.2995,1.2460376666666668,1.3615455555555558
321.0,3.8117,-1.2992,1.2456766944444446,1.3615455555555558
322.0,3.8115,-1.2995,1.2453158055555558,1.3615455555555558
323.0,3.811,-1.2996,1.2449548333333336,1.3615455555555558
324.0,3.8107,-1.2995,1.2445938333333335,1.3615455555555558
325.0,3.8106,-1.2992,1.2442328611111113,1.3615455555555558
326.0,3.8102,-1.2994,1.2438719722222225,1.3615455555555558
327.0,3.8098,-1.2996,1.243511027777778,1.3615455555555558
328.0,3.8097,-1.2995,1.243150027777778,1.3615455555555558
329.0,3.809,-1.2995,1.2427890555555559,1.3615455555555558
330.0,3.8087,-1.2995,1.2424280833333337,1.3615455555555558
331.0,3.8083,-1.2996,1.2420671111111115,1.3615455555555558
332.0,3.8081,-1.2996,1.2417061111111114,1.3615455555555558
333.0,3.8077,-1.2993,1.2413451111111113,1.3615455555555558
334.0,3.8073,-1.2994,1.2409841944444446,1.3615455555555558
