Test_Time(s),Voltage(V),Current(A),remaining capacity,maximum capacity
0.0,4.0654,-1.3006,1.8332043611111115,1.8332043611111115
1.0,4.045,-1.3002,1.8328430833333338,1.8332043611111115
2.0,4.0408,-1.3001,1.832481916666667,1.8332043611111115
3.0,4.0378,-1.3,1.8321207777777782,1.8332043611111115
4.0,4.0355,-1.3001,1.8317596666666671,1.8332043611111115
5.0,4.0336,-1.3,1.8313985277777782,1.8332043611111115
6.0,4.0316,-1.3001,1.831037416666667,1.8332043611111115
7.0,4.0298,-1.3001,1.830676277777778,1.8332043611111115
8.0,4.0282,-1.3002,1.8303151388888892,1.8332043611111115
9.0,4.0264,-1.3002,1.8299539722222227,1.8332043611111115
10.0,4.0252,-1.3002,1.829592805555556,1.8332043611111115
11.0,4.0237,-1.3002,1.8292316388888894,1.8332043611111115
12.0,4.0226,-1.3002,1.8288704722222227,1.8332043611111115
13.0,4.0213,-1.3003,1.828509305555556,1.8332043611111115
14.0,4.0198,-1.3002,1.8281481111111115,1.8332043611111115
15.0,4.0186,-1.3002,1.8277869444444448,1.8332043611111115
16.0,4.0174,-1.3002,1.8274257777777783,1.8332043611111115
17.0,4.0165,-1.3001,1.8270646111111115,1.8332043611111115
18.0,4.0152,-1.3003,1.8267034722222226,1.8332043611111115
19.0,4.0145,-1.3003,1.8263422777777782,1.8332043611111115
20.0,4.0134,-1.3003,1.8259810833333336,1.8332043611111115
21.0,4.0119,-1.3003,1.8256198888888893,1.8332043611111115
22.0,4.0114,-1.3001,1.8252586944444449,1.8332043611111115
23.0,4.0102,-1.3002,1.824897555555556,1.8332043611111115
24.0,4.0092,-1.3003,1.8245363888888892,1.8332043611111115
25.0,4.0083,-1.3001,1.8241751944444449,1.8332043611111115
26.0,4.0077,-1.3001,1.823814055555556,1.8332043611111115
27.0,4.0064,-1.3001,1.823452916666667,1.8332043611111115
28.0,4.0056,-1.3002,1.8230917777777782,1.8332043611111115
29.0,4.0049,-1.3001,1.8227306111111115,1.8332043611111115
30.0,4.0043,-1.3002,1.8223694722222226,1.8332043611111115
31.0,4.0032,-1.3002,1.822008305555556,1.8332043611111115
32.0,4.0025,-1.3002,1.8216471388888893,1.8332043611111115
33.0,4.0017,-1.3003,1.8212859722222225,1.8332043611111115
34.0,4.0004,-1.3,1.8209247777777782,1.8332043611111115
35.0,3.9999,-1.3,1.8205636666666671,1.8332043611111115
36.0,3.999,-1.3001,1.8202025555555559,1.8332043611111115
37.0,3.9983,-1.3001,1.819841416666667,1.8332043611111115
38.0,3.9976,-1.3001,1.819480277777778,1.8332043611111115
39.0,3.9969,-1.3002,1.8191191388888892,1.8332043611111115
40.0,3.9959,-1.3002,1.8187579722222227,1.8332043611111115
41.0,3.9952,-1.3001,1.818396805555556,1.8332043611111115
42.0,3.9948,-1.3002,1.818035666666667,1.8332043611111115
43.0,3.9944,-1.3002,1.8176745000000003,1.8332043611111115
44.0,3.9937,-1.3002,1.8173133333333338,1.8332043611111115
45.0,3.9927,-1.3001,1.816952166666667,1.8332043611111115
46.0,3.9919,-1.3002,1.8165910277777781,1.8332043611111115
47.0,3.9913,-1.3003,1.8162298611111116,1.8332043611111115
48.0,3.9906,-1.3,1.815868666666667,1.8332043611111115
49.0,3.9899,-1.3001,1.815507555555556,1.8332043611111115
50.0,3.9894,-1.3002,1.815146416666667,1.8332043611111115
51.0,3.9887,-1.3,1.8147852500000003,1.8332043611111115
52.0,3.9881,-1.3002,1.8144241388888893,1.8332043611111115
53.0,3.9876,-1.3002,1.8140629722222226,1.8332043611111115
54.0,3.9868,-1.3002,1.813701805555556,1.8332043611111115
55.0,3.9864,-1.3003,1.8133406388888893,1.8332043611111115
56.0,3.9853,-1.3003,1.812979444444445,1.8332043611111115
57.0,3.9849,-1.3002,1.8126182500000003,1.8332043611111115
58.0,3.9845,-1.3003,1.8122570833333338,1.8332043611111115
59.0,3.9837,-1.3002,1.8118958888888892,1.8332043611111115
60.0,3.9832,-1.3002,1.8115347222222227,1.8332043611111115
61.0,3.9824,-1.3002,1.811173555555556,1.8332043611111115
62.0,3.9822,-1.3001,1.8108123888888894,1.8332043611111115
63.0,3.9813,-1.3001,1.8104512500000003,1.8332043611111115
64.0,3.9808,-1.3001,1.8100901111111116,1.8332043611111115
65.0,3.9805,-1.3002,1.8097289722222225,1.8332043611111115
66.0,3.9798,-1.3001,1.809367805555556,1.8332043611111115
67.0,3.9791,-1.3002,1.809006666666667,1.8332043611111115
68.0,3.9785,-1.3002,1.8086455000000004,1.8332043611111115
69.0,3.978,-1.3001,1.8082843333333338,1.8332043611111115
70.0,3.9779,-1.3002,1.807923194444445,1.8332043611111115
71.0,3.9769,-1.3003,1.8075620277777782,1.8332043611111115
72.0,3.9766,-1.3001,1.8072008333333338,1.8332043611111115
73.0,3.9759,-1.3001,1.806839694444445,1.8332043611111115
74.0,3.9755,-1.3002,1.806478555555556,1.8332043611111115
75.0,3.975,-1.3003,1.8061173888888893,1.8332043611111115
76.0,3.9745,-1.3001,1.805756194444445,1.8332043611111115
77.0,3.974,-1.3002,1.805395055555556,1.8332043611111115
78.0,3.9734,-1.3001,1.8050338888888893,1.8332043611111115
79.0,3.9731,-1.3001,1.8046727500000004,1.8332043611111115
80.0,3.9723,-1.3001,1.8043116111111115,1.8332043611111115
81.0,3.9718,-1.3002,1.8039504722222226,1.8332043611111115
82.0,3.9714,-1.3002,1.8035893055555559,1.8332043611111115
83.0,3.971,-1.3,1.8032281388888893,1.8332043611111115
84.0,3.9704,-1.3002,1.802867027777778,1.8332043611111115
85.0,3.9702,-1.3002,1.8025058611111116,1.8332043611111115
86.0,3.9693,-1.3003,1.8021446944444448,1.8332043611111115
87.0,3.9691,-1.3001,1.8017835000000004,1.8332043611111115
88.0,3.9688,-1.3004,1.8014223611111115,1.8332043611111115
89.0,3.9682,-1.3002,1.8010611388888893,1.8332043611111115
90.0,3.9679,-1.3004,1.8006999722222226,1.8332043611111115
91.0,3.9673,-1.3001,1.8003387500000003,1.8332043611111115
92.0,3.9667,-1.2999,1.7999776111111114,1.8332043611111115
93.0,3.9668,-1.3002,1.7996165277777783,1.8332043611111115
94.0,3.9662,-1.3,1.7992553611111115,1.8332043611111115
95.0,3.9654,-1.3,1.7988942500000005,1.8332043611111115
96.0,3.9652,-1.3,1.7985331388888892,1.8332043611111115
97.0,3.9646,-1.3001,1.7981720277777782,1.8332043611111115
98.0,3.9642,-1.3001,1.7978108888888893,1.8332043611111115
99.0,3.964,-1.3001,1.7974497500000004,1.8332043611111115
100.0,3.9634,-1.3001,1.7970886111111115,1.8332043611111115
101.0,3.9629,-1.3001,1.7967274722222226,1.8332043611111115
102.0,3.9625,-1.3003,1.7963663333333337,1.8332043611111115
103.0,3.9619,-1.3002,1.7960051388888894,1.8332043611111115
104.0,3.9616,-1.3002,1.7956439722222226,1.8332043611111115
105.0,3.9613,-1.3002,1.7952828055555559,1.8332043611111115
106.0,3.9607,-1.3001,1.7949216388888893,1.8332043611111115
107.0,3.9605,-1.3001,1.7945605000000004,1.8332043611111115
108.0,3.9601,-1.3002,1.7941993611111116,1.8332043611111115
109.0,3.9597,-1.3002,1.7938381944444448,1.8332043611111115
110.0,3.9592,-1.3001,1.793477027777778,1.8332043611111115
111.0,3.9594,-1.3001,1.7931158888888892,1.8332043611111115
112.0,3.9584,-1.3003,1.7927547500000003,1.8332043611111115
113.0,3.9582,-1.3002,1.792393555555556,1.8332043611111115
114.0,3.9578,-1.3001,1.7920323888888894,1.8332043611111115
115.0,3.9575,-1.3001,1.7916712500000005,1.8332043611111115
116.0,3.9571,-1.3001,1.7913101111111116,1.8332043611111115
117.0,3.9569,-1.3002,1.7909489722222227,1.8332043611111115
118.0,3.9564,-1.3002,1.790587805555556,1.8332043611111115
119.0,3.9558,-1.3002,1.7902266388888892,1.8332043611111115
120.0,3.9558,-1.3003,1.7898654722222227,1.8332043611111115
121.0,3.9549,-1.3,1.789504277777778,1.8332043611111115
122.0,3.955,-1.3002,1.789143166666667,1.8332043611111115
123.0,3.9546,-1.3003,1.7887820000000003,1.8332043611111115
124.0,3.9541,-1.3002,1.788420805555556,1.8332043611111115
125.0,3.9538,-1.3,1.7880596388888892,1.8332043611111115
126.0,3.9533,-1.3,1.7876985277777782,1.8332043611111115
127.0,3.9531,-1.3001,1.7873374166666671,1.8332043611111115
128.0,3.9524,-1.3002,1.7869762777777782,1.8332043611111115
129.0,3.952,-1.3,1.7866151111111115,1.8332043611111115
130.0,3.9521,-1.3002,1.7862540000000005,1.8332043611111115
131.0,3.9515,-1.3,1.7858928333333337,1.8332043611111115
132.0,3.9511,-1.3002,1.7855317222222227,1.8332043611111115
133.0,3.9509,-1.3001,1.785170555555556,1.8332043611111115
134.0,3.9506,-1.3002,1.784809416666667,1.8332043611111115
135.0,3.9505,-1.3001,1.7844482500000005,1.8332043611111115
136.0,3.9497,-1.3001,1.7840871111111114,1.8332043611111115
137.0,3.9494,-1.3001,1.7837259722222225,1.8332043611111115
138.0,3.9492,-1.3003,1.7833648333333336,1.8332043611111115
139.0,3.9487,-1.3001,1.7830036388888892,1.8332043611111115
140.0,3.9487,-1.3002,1.7826425000000004,1.8332043611111115
141.0,3.9482,-1.3001,1.7822813333333338,1.8332043611111115
142.0,3.9479,-1.3001,1.781920194444445,1.8332043611111115
143.0,3.9476,-1.3002,1.781559055555556,1.8332043611111115
144.0,3.947,-1.3001,1.7811978888888893,1.8332043611111115
145.0,3.9468,-1.3001,1.7808367500000004,1.8332043611111115
146.0,3.9467,-1.3,1.7804756111111115,1.8332043611111115
147.0,3.9463,-1.3001,1.7801145000000005,1.8332043611111115
148.0,3.946,-1.3002,1.7797533611111116,1.8332043611111115
149.0,3.9456,-1.3001,1.7793921944444449,1.8332043611111115
150.0,3.9452,-1.3,1.779031055555556,1.8332043611111115
151.0,3.945,-1.3001,1.778669944444445,1.8332043611111115
152.0,3.9447,-1.3001,1.778308805555556,1.8332043611111115
153.0,3.9444,-1.3002,1.7779476666666671,1.8332043611111115
154.0,3.9441,-1.3001,1.7775865000000004,1.8332043611111115
155.0,3.9435,-1.3003,1.7772253611111115,1.8332043611111115
156.0,3.9435,-1.3003,1.7768641666666671,1.8332043611111115
157.0,3.9431,-1.3,1.7765029722222225,1.8332043611111115
158.0,3.943,-1.3001,1.7761418611111115,1.8332043611111115
159.0,3.9425,-1.3001,1.7757807222222226,1.8332043611111115
160.0,3.9423,-1.3001,1.7754195833333337,1.8332043611111115
161.0,3.942,-1.3001,1.7750584444444448,1.8332043611111115
162.0,3.9413,-1.3002,1.774697305555556,1.8332043611111115
163.0,3.9414,-1.3001,1.7743361388888892,1.8332043611111115
164.0,3.9415,-1.3002,1.7739750000000003,1.8332043611111115
165.0,3.9405,-1.3,1.7736138333333338,1.8332043611111115
166.0,3.9405,-1.3001,1.7732527222222225,1.8332043611111115
167.0,3.94,-1.3,1.7728915833333336,1.8332043611111115
168.0,3.94,-1.3001,1.7725304722222226,1.8332043611111115
169.0,3.9397,-1.3001,1.7721693333333337,1.8332043611111115
170.0,3.9394,-1.3002,1.7718081944444448,1.8332043611111115
171.0,3.9393,-1.3002,1.771447027777778,1.8332043611111115
172.0,3.9388,-1.3003,1.7710858611111115,1.8332043611111115
173.0,3.9387,-1.3001,1.7707246666666672,1.8332043611111115
174.0,3.9381,-1.3001,1.770363527777778,1.8332043611111115
175.0,3.9377,-1.3002,1.7700023888888894,1.8332043611111115
176.0,3.9376,-1.3002,1.7696412222222226,1.8332043611111115
177.0,3.9375,-1.3003,1.769280055555556,1.8332043611111115
178.0,3.9372,-1.3004,1.7689188611111115,1.8332043611111115
179.0,3.9367,-1.3002,1.7685576388888893,1.8332043611111115
180.0,3.9364,-1.3002,1.7681964722222225,1.8332043611111115
181.0,3.9363,-1.3002,1.767835305555556,1.8332043611111115
182.0,3.9361,-1.3002,1.7674741388888893,1.8332043611111115
183.0,3.9356,-1.3002,1.7671129722222225,1.8332043611111115
184.0,3.9354,-1.3,1.766751805555556,1.8332043611111115
185.0,3.9351,-1.3002,1.7663906944444447,1.8332043611111115
186.0,3.9348,-1.3,1.7660295277777782,1.8332043611111115
187.0,3.9345,-1.3002,1.765668416666667,1.8332043611111115
188.0,3.9342,-1.3001,1.7653072500000004,1.8332043611111115
189.0,3.9341,-1.3001,1.7649461111111115,1.8332043611111115
190.0,3.9337,-1.3001,1.7645849722222227,1.8332043611111115
191.0,3.9335,-1.3001,1.7642238333333338,1.8332043611111115
192.0,3.9333,-1.3002,1.7638626944444449,1.8332043611111115
193.0,3.9331,-1.3001,1.7635015277777781,1.8332043611111115
194.0,3.9327,-1.3002,1.7631403888888892,1.8332043611111115
195.0,3.9325,-1.3001,1.7627792222222225,1.8332043611111115
196.0,3.9322,-1.3001,1.7624180833333338,1.8332043611111115
197.0,3.9322,-1.3002,1.7620569444444447,1.8332043611111115
198.0,3.9319,-1.3002,1.7616957777777782,1.8332043611111115
199.0,3.9317,-1.3001,1.7613346111111114,1.8332043611111115
200.0,3.9313,-1.3002,1.7609734722222226,1.8332043611111115
201.0,3.9311,-1.3001,1.760612305555556,1.8332043611111115
202.0,3.9309,-1.3002,1.7602511666666671,1.8332043611111115
203.0,3.9306,-1.3001,1.7598900000000004,1.8332043611111115
204.0,3.9304,-1.3001,1.7595288611111115,1.8332043611111115
205.0,3.9299,-1.3002,1.7591677222222226,1.8332043611111115
206.0,3.9298,-1.3002,1.7588065555555559,1.8332043611111115
207.0,3.9297,-1.3001,1.7584453888888893,1.8332043611111115
208.0,3.9292,-1.3001,1.7580842500000005,1.8332043611111115
209.0,3.9289,-1.3002,1.7577231111111116,1.8332043611111115
210.0,3.9287,-1.3002,1.7573619444444448,1.8332043611111115
211.0,3.9285,-1.3,1.757000777777778,1.8332043611111115
212.0,3.928,-1.3002,1.756639666666667,1.8332043611111115
213.0,3.9277,-1.3002,1.7562785000000003,1.8332043611111115
214.0,3.9277,-1.3002,1.7559173333333338,1.8332043611111115
215.0,3.9279,-1.3001,1.755556166666667,1.8332043611111115
216.0,3.9273,-1.3003,1.7551950277777781,1.8332043611111115
217.0,3.9267,-1.3,1.7548338333333338,1.8332043611111115
218.0,3.927,-1.3001,1.7544727222222227,1.8332043611111115
219.0,3.9265,-1.3001,1.7541115833333336,1.8332043611111115
220.0,3.9261,-1.3001,1.753750444444445,1.8332043611111115
221.0,3.9261,-1.3001,1.7533893055555558,1.8332043611111115
222.0,3.9258,-1.3,1.7530281666666672,1.8332043611111115
223.0,3.9255,-1.3001,1.752667055555556,1.8332043611111115
224.0,3.9251,-1.3001,1.752305916666667,1.8332043611111115
225.0,3.9251,-1.3001,1.7519447777777781,1.8332043611111115
226.0,3.9248,-1.3002,1.7515836388888892,1.8332043611111115
227.0,3.9245,-1.3001,1.7512224722222225,1.8332043611111115
228.0,3.9243,-1.3001,1.7508613333333338,1.8332043611111115
229.0,3.9237,-1.3002,1.7505001944444447,1.8332043611111115
230.0,3.9236,-1.3002,1.7501390277777782,1.8332043611111115
231.0,3.9235,-1.3003,1.7497778611111114,1.8332043611111115
232.0,3.9233,-1.3002,1.749416666666667,1.8332043611111115
233.0,3.9232,-1.3001,1.7490555000000003,1.8332043611111115
234.0,3.9228,-1.3002,1.7486943611111114,1.8332043611111115
235.0,3.9226,-1.3001,1.748333194444445,1.8332043611111115
236.0,3.9227,-1.3001,1.747972055555556,1.8332043611111115
237.0,3.9222,-1.3001,1.7476109166666671,1.8332043611111115
238.0,3.922,-1.3003,1.7472497777777782,1.8332043611111115
239.0,3.9217,-1.3001,1.7468885833333336,1.8332043611111115
240.0,3.9215,-1.3001,1.7465274444444447,1.8332043611111115
241.0,3.9211,-1.3002,1.7461663055555559,1.8332043611111115
242.0,3.9208,-1.3002,1.7458051388888893,1.8332043611111115
243.0,3.9206,-1.3001,1.7454439722222226,1.8332043611111115
244.0,3.9203,-1.3001,1.7450828333333337,1.8332043611111115
245.0,3.9203,-1.3002,1.7447216944444448,1.8332043611111115
246.0,3.9201,-1.3001,1.744360527777778,1.8332043611111115
247.0,3.92,-1.3002,1.7439993888888892,1.8332043611111115
248.0,3.9197,-1.3002,1.7436382222222226,1.8332043611111115
249.0,3.9191,-1.3002,1.743277055555556,1.8332043611111115
250.0,3.9189,-1.3002,1.7429158888888894,1.8332043611111115
251.0,3.919,-1.3002,1.7425547222222226,1.8332043611111115
252.0,3.9186,-1.3002,1.7421935555555559,1.8332043611111115
253.0,3.9182,-1.3002,1.7418323888888894,1.8332043611111115
254.0,3.9181,-1.3002,1.7414712222222226,1.8332043611111115
255.0,3.9179,-1.3002,1.7411100555555559,1.8332043611111115
256.0,3.9177,-1.3002,1.7407488888888893,1.8332043611111115
257.0,3.9174,-1.3002,1.7403877222222226,1.8332043611111115
258.0,3.9172,-1.3002,1.7400265555555559,1.8332043611111115
259.0,3.917,-1.3001,1.7396653888888893,1.8332043611111115
260.0,3.9168,-1.3002,1.7393042500000004,1.8332043611111115
261.0,3.9164,-1.3,1.7389430833333337,1.8332043611111115
262.0,3.9163,-1.3002,1.7385819722222227,1.8332043611111115
263.0,3.9161,-1.3003,1.738220805555556,1.8332043611111115
264.0,3.916,-1.3001,1.7378596111111115,1.8332043611111115
265.0,3.9156,-1.3001,1.7374984722222226,1.8332043611111115
266.0,3.9153,-1.3003,1.7371373333333338,1.8332043611111115
267.0,3.9153,-1.3003,1.7367761388888892,1.8332043611111115
268.0,3.9149,-1.3002,1.7364149444444448,1.8332043611111115
269.0,3.915,-1.3001,1.7360537777777783,1.8332043611111115
270.0,3.9145,-1.3002,1.7356926388888894,1.8332043611111115
271.0,3.9141,-1.3001,1.7353314722222226,1.8332043611111115
272.0,3.914,-1.3002,1.7349703333333337,1.8332043611111115
273.0,3.9139,-1.3002,1.734609166666667,1.8332043611111115
274.0,3.9135,-1.3002,1.7342480000000005,1.8332043611111115
275.0,3.9134,-1.3002,1.7338868333333337,1.8332043611111115
276.0,3.9134,-1.3002,1.733525666666667,1.8332043611111115
277.0,3.9132,-1.3001,1.7331645000000004,1.8332043611111115
278.0,3.9127,-1.3002,1.7328033611111116,1.8332043611111115
279.0,3.9125,-1.3002,1.7324421944444448,1.8332043611111115
280.0,3.9122,-1.3001,1.7320810277777783,1.8332043611111115
281.0,3.9119,-1.3003,1.7317198888888892,1.8332043611111115
282.0,3.9116,-1.3003,1.7313586944444448,1.8332043611111115
283.0,3.9118,-1.3001,1.7309975000000004,1.8332043611111115
284.0,3.9114,-1.3003,1.7306363611111115,1.8332043611111115
285.0,3.911,-1.3001,1.7302751666666671,1.8332043611111115
286.0,3.9109,-1.3001,1.7299140277777783,1.8332043611111115
287.0,3.9106,-1.3002,1.7295528888888894,1.8332043611111115
288.0,3.9105,-1.3001,1.7291917222222226,1.8332043611111115
289.0,3.9101,-1.3001,1.7288305833333337,1.8332043611111115
290.0,3.9101,-1.3002,1.7284694444444448,1.8332043611111115
291.0,3.9099,-1.3003,1.728108277777778,1.8332043611111115
292.0,3.9098,-1.3001,1.7277470833333337,1.8332043611111115
293.0,3.9095,-1.3,1.7273859444444448,1.8332043611111115
294.0,3.9095,-1.3002,1.7270248333333338,1.8332043611111115
295.0,3.9089,-1.3002,1.726663666666667,1.8332043611111115
296.0,3.909,-1.3002,1.7263025000000003,1.8332043611111115
297.0,3.9085,-1.3001,1.7259413333333338,1.8332043611111115
298.0,3.9082,-1.3003,1.7255801944444449,1.8332043611111115
299.0,3.908,-1.3001,1.7252190000000005,1.8332043611111115
300.0,3.9079,-1.3002,1.7248578611111114,1.8332043611111115
301.0,3.9079,-1.3002,1.7244966944444449,1.8332043611111115
302.0,3.9075,-1.3002,1.7241355277777781,1.8332043611111115
303.0,3.9073,-1.3001,1.7237743611111116,1.8332043611111115
304.0,3.9068,-1.3001,1.7234132222222227,1.8332043611111115
305.0,3.9067,-1.3,1.7230520833333338,1.8332043611111115
306.0,3.9063,-1.3003,1.7226909722222226,1.8332043611111115
307.0,3.9065,-1.3002,1.7223297777777782,1.8332043611111115
308.0,3.9062,-1.3001,1.7219686111111114,1.8332043611111115
309.0,3.9058,-1.3002,1.7216074722222225,1.8332043611111115
310.0,3.9056,-1.3002,1.721246305555556,1.8332043611111115
311.0,3.9053,-1.3001,1.7208851388888893,1.8332043611111115
312.0,3.9055,-1.3,1.7205240000000004,1.8332043611111115
313.0,3.905,-1.3003,1.7201628888888894,1.8332043611111115
314.0,3.9048,-1.3002,1.7198016944444448,1.8332043611111115
315.0,3.9046,-1.3003,1.7194405277777782,1.8332043611111115
316.0,3.9042,-1.3001,1.7190793333333336,1.8332043611111115
317.0,3.9041,-1.3,1.7187181944444447,1.8332043611111115
318.0,3.9039,-1.3003,1.7183570833333337,1.8332043611111115
319.0,3.9037,-1.3001,1.7179958888888893,1.8332043611111115
320.0,3.9034,-1.3,1.7176347500000004,1.8332043611111115
321.0,3.9034,-1.3002,1.7172736388888892,1.8332043611111115
322.0,3.9028,-1.3001,1.7169124722222227,1.8332043611111115
323.0,3.9029,-1.3002,1.7165513333333338,1.8332043611111115
324.0,3.9024,-1.3002,1.716190166666667,1.8332043611111115
325.0,3.9022,-1.3002,1.7158290000000003,1.8332043611111115
326.0,3.9022,-1.3002,1.7154678333333337,1.8332043611111115
327.0,3.9022,-1.3002,1.715106666666667,1.8332043611111115
328.0,3.9019,-1.3003,1.7147455000000005,1.8332043611111115
329.0,3.9017,-1.3002,1.7143843055555559,1.8332043611111115
330.0,3.9012,-1.3003,1.7140231388888894,1.8332043611111115
331.0,3.9011,-1.3,1.7136619444444448,1.8332043611111115
332.0,3.9012,-1.3001,1.7133008333333337,1.8332043611111115
333.0,3.9007,-1.3002,1.7129396944444448,1.8332043611111115
334.0,3.9007,-1.3001,1.712578527777778,1.8332043611111115
335.0,3.9004,-1.3002,1.7122173888888892,1.8332043611111115
336.0,3.9003,-1.3002,1.7118562222222227,1.8332043611111115
