Test_Time(s),Voltage(V),Current(A),remaining capacity,maximum capacity
0.0,4.0612,-1.3007,2.0758739999999998,2.0758739999999998
1.0,4.0424,-1.3008,2.0755126944444444,2.0758739999999998
2.0,4.0386,-1.3009,2.0751513611111108,2.0758739999999998
3.0,4.036,-1.301,2.0747899999999997,2.0758739999999998
4.0,4.034,-1.3008,2.0744286111111108,2.0758739999999998
5.0,4.0317,-1.3009,2.0740672777777776,2.0758739999999998
6.0,4.0299,-1.3009,2.0737059166666665,2.0758739999999998
7.0,4.0286,-1.3008,2.0733445555555554,2.0758739999999998
8.0,4.0273,-1.3007,2.072983222222222,2.0758739999999998
9.0,4.0256,-1.3007,2.0726219166666664,2.0758739999999998
10.0,4.0244,-1.3009,2.072260611111111,2.0758739999999998
11.0,4.0231,-1.3009,2.07189925,2.0758739999999998
12.0,4.022,-1.3006,2.0715378888888885,2.0758739999999998
13.0,4.0209,-1.3009,2.071176611111111,2.0758739999999998
14.0,4.0199,-1.3009,2.07081525,2.0758739999999998
15.0,4.0187,-1.3008,2.070453888888889,2.0758739999999998
16.0,4.0178,-1.3008,2.070092555555555,2.0758739999999998
17.0,4.017,-1.3007,2.069731222222222,2.0758739999999998
18.0,4.0159,-1.3009,2.0693699166666666,2.0758739999999998
19.0,4.0147,-1.3006,2.0690085555555555,2.0758739999999998
20.0,4.014,-1.3007,2.0686472777777776,2.0758739999999998
21.0,4.0131,-1.3008,2.068285972222222,2.0758739999999998
22.0,4.0122,-1.3008,2.0679246388888886,2.0758739999999998
23.0,4.0113,-1.3006,2.0675633055555553,2.0758739999999998
24.0,4.0106,-1.3007,2.0672020277777774,2.0758739999999998
25.0,4.0098,-1.3006,2.066840722222222,2.0758739999999998
26.0,4.0091,-1.3007,2.066479444444444,2.0758739999999998
27.0,4.0082,-1.3007,2.0661181388888887,2.0758739999999998
28.0,4.0076,-1.3007,2.065756833333333,2.0758739999999998
29.0,4.0064,-1.3008,2.0653955277777776,2.0758739999999998
30.0,4.0058,-1.3008,2.0650341944444444,2.0758739999999998
31.0,4.0051,-1.3008,2.0646728611111107,2.0758739999999998
32.0,4.004,-1.3007,2.0643115277777775,2.0758739999999998
33.0,4.0037,-1.3006,2.063950222222222,2.0758739999999998
34.0,4.003,-1.3008,2.063588944444444,2.0758739999999998
35.0,4.0021,-1.3006,2.063227611111111,2.0758739999999998
36.0,4.0013,-1.3006,2.062866333333333,2.0758739999999998
37.0,4.0008,-1.3007,2.0625050555555555,2.0758739999999998
38.0,4.0003,-1.3006,2.0621437499999997,2.0758739999999998
39.0,3.9995,-1.3006,2.061782472222222,2.0758739999999998
40.0,3.9989,-1.3006,2.0614211944444443,2.0758739999999998
41.0,3.9979,-1.3006,2.0610599166666663,2.0758739999999998
42.0,3.9976,-1.3007,2.060698638888889,2.0758739999999998
43.0,3.9969,-1.3008,2.060337333333333,2.0758739999999998
44.0,3.9959,-1.3007,2.059976,2.0758739999999998
45.0,3.9955,-1.3007,2.059614694444444,2.0758739999999998
46.0,3.9949,-1.3008,2.0592533888888886,2.0758739999999998
47.0,3.9943,-1.3006,2.0588920555555554,2.0758739999999998
48.0,3.9937,-1.3008,2.0585307777777775,2.0758739999999998
49.0,3.9933,-1.3006,2.0581694444444443,2.0758739999999998
50.0,3.9926,-1.3007,2.0578081666666663,2.0758739999999998
51.0,3.9919,-1.3006,2.057446861111111,2.0758739999999998
52.0,3.9915,-1.3007,2.057085583333333,2.0758739999999998
53.0,3.991,-1.3006,2.0567242777777777,2.0758739999999998
54.0,3.99,-1.3008,2.0563629999999997,2.0758739999999998
55.0,3.9899,-1.3008,2.0560016666666665,2.0758739999999998
56.0,3.9888,-1.3006,2.0556403333333333,2.0758739999999998
57.0,3.9889,-1.3007,2.0552790555555553,2.0758739999999998
58.0,3.988,-1.3005,2.05491775,2.0758739999999998
59.0,3.9871,-1.3005,2.0545565,2.0758739999999998
60.0,3.987,-1.3007,2.05419525,2.0758739999999998
61.0,3.9864,-1.3006,2.053833944444444,2.0758739999999998
62.0,3.9861,-1.3005,2.0534726666666665,2.0758739999999998
63.0,3.9852,-1.3009,2.0531114166666664,2.0758739999999998
64.0,3.9848,-1.3007,2.0527500555555553,2.0758739999999998
65.0,3.9841,-1.3007,2.05238875,2.0758739999999998
66.0,3.9838,-1.3006,2.052027444444444,2.0758739999999998
67.0,3.9832,-1.3007,2.0516661666666662,2.0758739999999998
68.0,3.9829,-1.3008,2.051304861111111,2.0758739999999998
69.0,3.9823,-1.3007,2.0509435277777777,2.0758739999999998
70.0,3.9817,-1.3009,2.050582222222222,2.0758739999999998
71.0,3.981,-1.3009,2.050220861111111,2.0758739999999998
72.0,3.9808,-1.3006,2.0498594999999997,2.0758739999999998
73.0,3.9801,-1.3005,2.049498222222222,2.0758739999999998
74.0,3.9799,-1.3006,2.049136972222222,2.0758739999999998
75.0,3.9794,-1.3008,2.048775694444444,2.0758739999999998
76.0,3.9789,-1.3007,2.048414361111111,2.0758739999999998
77.0,3.9784,-1.3004,2.048053055555555,2.0758739999999998
78.0,3.9778,-1.3007,2.047691833333333,2.0758739999999998
79.0,3.9776,-1.3006,2.0473305277777776,2.0758739999999998
80.0,3.9767,-1.3006,2.0469692499999996,2.0758739999999998
81.0,3.9768,-1.3008,2.046607972222222,2.0758739999999998
82.0,3.9761,-1.3007,2.0462466388888885,2.0758739999999998
83.0,3.9756,-1.3007,2.045885333333333,2.0758739999999998
84.0,3.9753,-1.3006,2.0455240277777778,2.0758739999999998
85.0,3.9747,-1.3005,2.04516275,2.0758739999999998
86.0,3.9741,-1.3006,2.0448014999999997,2.0758739999999998
87.0,3.9738,-1.3004,2.044440222222222,2.0758739999999998
88.0,3.9733,-1.3006,2.044079,2.0758739999999998
89.0,3.973,-1.3005,2.043717722222222,2.0758739999999998
90.0,3.9722,-1.3006,2.043356472222222,2.0758739999999998
91.0,3.9721,-1.3006,2.042995194444444,2.0758739999999998
92.0,3.9715,-1.3007,2.0426339166666665,2.0758739999999998
93.0,3.9712,-1.3006,2.0422726111111107,2.0758739999999998
94.0,3.9707,-1.3006,2.041911333333333,2.0758739999999998
95.0,3.9701,-1.3005,2.0415500555555552,2.0758739999999998
96.0,3.97,-1.3005,2.041188805555555,2.0758739999999998
97.0,3.9698,-1.3005,2.0408275555555555,2.0758739999999998
98.0,3.9692,-1.3004,2.0404663055555554,2.0758739999999998
99.0,3.9685,-1.3006,2.040105083333333,2.0758739999999998
100.0,3.9685,-1.3003,2.0397438055555552,2.0758739999999998
101.0,3.9679,-1.3005,2.039382611111111,2.0758739999999998
102.0,3.9675,-1.3004,2.0390213611111108,2.0758739999999998
103.0,3.9671,-1.3005,2.0386601388888885,2.0758739999999998
104.0,3.9667,-1.3004,2.038298888888889,2.0758739999999998
105.0,3.9664,-1.3005,2.0379376666666666,2.0758739999999998
106.0,3.9663,-1.3006,2.0375764166666666,2.0758739999999998
107.0,3.9652,-1.3003,2.0372151388888886,2.0758739999999998
108.0,3.965,-1.3003,2.0368539444444442,2.0758739999999998
109.0,3.9649,-1.3004,2.03649275,2.0758739999999998
110.0,3.9646,-1.3005,2.0361315277777776,2.0758739999999998
111.0,3.9639,-1.3005,2.0357702777777775,2.0758739999999998
112.0,3.9636,-1.3006,2.0354090277777774,2.0758739999999998
113.0,3.9634,-1.3004,2.03504775,2.0758739999999998
114.0,3.9628,-1.3003,2.0346865277777777,2.0758739999999998
115.0,3.9627,-1.3006,2.0343253333333333,2.0758739999999998
116.0,3.9621,-1.3006,2.0339640555555554,2.0758739999999998
117.0,3.9617,-1.3005,2.0336027777777774,2.0758739999999998
118.0,3.9612,-1.3005,2.0332415277777773,2.0758739999999998
119.0,3.9612,-1.3004,2.0328802777777777,2.0758739999999998
120.0,3.9609,-1.3003,2.0325190555555555,2.0758739999999998
121.0,3.9603,-1.3004,2.032157861111111,2.0758739999999998
122.0,3.9601,-1.3004,2.031796638888889,2.0758739999999998
123.0,3.9595,-1.3004,2.0314354166666666,2.0758739999999998
124.0,3.9593,-1.3005,2.0310741944444444,2.0758739999999998
125.0,3.959,-1.3005,2.0307129444444443,2.0758739999999998
126.0,3.9584,-1.3005,2.030351694444444,2.0758739999999998
127.0,3.9583,-1.3004,2.029990444444444,2.0758739999999998
128.0,3.9577,-1.3003,2.029629222222222,2.0758739999999998
129.0,3.9575,-1.3002,2.0292680277777775,2.0758739999999998
130.0,3.9571,-1.3004,2.028906861111111,2.0758739999999998
131.0,3.9569,-1.3003,2.0285456388888887,2.0758739999999998
132.0,3.9564,-1.3001,2.0281844444444443,2.0758739999999998
133.0,3.956,-1.3004,2.0278233055555552,2.0758739999999998
134.0,3.9557,-1.3004,2.027462083333333,2.0758739999999998
135.0,3.9554,-1.3005,2.0271008611111108,2.0758739999999998
136.0,3.9547,-1.3004,2.026739611111111,2.0758739999999998
137.0,3.9545,-1.3006,2.026378388888889,2.0758739999999998
138.0,3.9544,-1.3003,2.026017111111111,2.0758739999999998
139.0,3.9542,-1.3004,2.0256559166666666,2.0758739999999998
140.0,3.9537,-1.3005,2.0252946944444443,2.0758739999999998
141.0,3.9536,-1.3003,2.0249334444444442,2.0758739999999998
142.0,3.9533,-1.3005,2.02457225,2.0758739999999998
143.0,3.953,-1.3003,2.0242109999999998,2.0758739999999998
144.0,3.9523,-1.3005,2.0238498055555554,2.0758739999999998
145.0,3.9525,-1.3002,2.0234885555555553,2.0758739999999998
146.0,3.9519,-1.3003,2.0231273888888888,2.0758739999999998
147.0,3.9514,-1.3003,2.0227661944444444,2.0758739999999998
148.0,3.9512,-1.3004,2.022405,2.0758739999999998
149.0,3.9507,-1.3004,2.0220437777777778,2.0758739999999998
150.0,3.9506,-1.3005,2.0216825555555555,2.0758739999999998
151.0,3.9501,-1.3002,2.0213213055555554,2.0758739999999998
152.0,3.9502,-1.3003,2.0209601388888885,2.0758739999999998
153.0,3.9496,-1.3004,2.020598944444444,2.0758739999999998
154.0,3.9494,-1.3003,2.020237722222222,2.0758739999999998
155.0,3.949,-1.3002,2.0198765277777775,2.0758739999999998
156.0,3.9488,-1.3004,2.019515361111111,2.0758739999999998
157.0,3.9484,-1.3003,2.0191541388888887,2.0758739999999998
158.0,3.9478,-1.3002,2.0187929444444443,2.0758739999999998
159.0,3.9481,-1.3003,2.0184317777777774,2.0758739999999998
160.0,3.9477,-1.3005,2.018070583333333,2.0758739999999998
161.0,3.9472,-1.3003,2.017709333333333,2.0758739999999998
162.0,3.9466,-1.3003,2.0173481388888885,2.0758739999999998
163.0,3.9466,-1.3003,2.016986944444444,2.0758739999999998
164.0,3.9465,-1.3002,2.0166257499999998,2.0758739999999998
165.0,3.946,-1.3003,2.0162645833333332,2.0758739999999998
166.0,3.9458,-1.3004,2.015903388888889,2.0758739999999998
167.0,3.9455,-1.3003,2.0155421666666666,2.0758739999999998
168.0,3.9453,-1.3003,2.015180972222222,2.0758739999999998
169.0,3.9448,-1.3003,2.0148197777777774,2.0758739999999998
170.0,3.9448,-1.3003,2.014458583333333,2.0758739999999998
171.0,3.9442,-1.3003,2.0140973888888887,2.0758739999999998
172.0,3.944,-1.3004,2.0137361944444443,2.0758739999999998
173.0,3.944,-1.3002,2.013374972222222,2.0758739999999998
174.0,3.9434,-1.3005,2.0130138055555555,2.0758739999999998
175.0,3.9433,-1.3004,2.0126525555555554,2.0758739999999998
176.0,3.9428,-1.3001,2.012291333333333,2.0758739999999998
177.0,3.9427,-1.3001,2.011930194444444,2.0758739999999998
178.0,3.9422,-1.3001,2.0115690555555554,2.0758739999999998
179.0,3.9419,-1.3002,2.0112079166666663,2.0758739999999998
180.0,3.9416,-1.3001,2.01084675,2.0758739999999998
181.0,3.9416,-1.3002,2.0104856111111107,2.0758739999999998
182.0,3.9415,-1.3002,2.010124444444444,2.0758739999999998
183.0,3.941,-1.3002,2.0097632777777776,2.0758739999999998
184.0,3.9407,-1.3001,2.009402111111111,2.0758739999999998
185.0,3.9407,-1.3002,2.009040972222222,2.0758739999999998
186.0,3.94,-1.3001,2.0086798055555555,2.0758739999999998
187.0,3.94,-1.3003,2.0083186666666664,2.0758739999999998
188.0,3.9396,-1.3002,2.007957472222222,2.0758739999999998
189.0,3.9392,-1.3002,2.0075963055555555,2.0758739999999998
190.0,3.9388,-1.3003,2.0072351388888885,2.0758739999999998
191.0,3.9385,-1.3003,2.006873944444444,2.0758739999999998
192.0,3.9386,-1.3003,2.0065127499999997,2.0758739999999998
193.0,3.9381,-1.3003,2.0061515555555554,2.0758739999999998
194.0,3.9378,-1.3002,2.005790361111111,2.0758739999999998
195.0,3.9376,-1.3001,2.005429194444444,2.0758739999999998
196.0,3.9376,-1.3003,2.0050680555555553,2.0758739999999998
197.0,3.9374,-1.3003,2.004706861111111,2.0758739999999998
198.0,3.9369,-1.3003,2.0043456666666666,2.0758739999999998
199.0,3.9366,-1.3003,2.003984472222222,2.0758739999999998
200.0,3.936,-1.3001,2.0036232777777774,2.0758739999999998
201.0,3.9363,-1.3003,2.0032621388888887,2.0758739999999998
202.0,3.9359,-1.3003,2.0029009444444443,2.0758739999999998
203.0,3.9355,-1.3002,2.00253975,2.0758739999999998
204.0,3.9356,-1.3003,2.002178583333333,2.0758739999999998
205.0,3.9348,-1.3002,2.0018173888888886,2.0758739999999998
206.0,3.9344,-1.3002,2.001456222222222,2.0758739999999998
207.0,3.9348,-1.3003,2.001095055555555,2.0758739999999998
208.0,3.9342,-1.3002,2.0007338611111107,2.0758739999999998
209.0,3.9341,-1.3002,2.000372694444444,2.0758739999999998
210.0,3.9337,-1.3003,2.0000115277777777,2.0758739999999998
211.0,3.9335,-1.3001,1.999650333333333,2.0758739999999998
212.0,3.933,-1.3002,1.9992891944444442,2.0758739999999998
213.0,3.9329,-1.3003,1.9989280277777777,2.0758739999999998
214.0,3.9328,-1.3001,1.998566833333333,2.0758739999999998
215.0,3.9323,-1.3001,1.9982056944444442,2.0758739999999998
216.0,3.9321,-1.3002,1.9978445555555553,2.0758739999999998
217.0,3.9319,-1.3002,1.9974833888888885,2.0758739999999998
218.0,3.9318,-1.3003,1.997122222222222,2.0758739999999998
219.0,3.9317,-1.3005,1.9967610277777776,2.0758739999999998
220.0,3.9312,-1.3001,1.9963997777777776,2.0758739999999998
221.0,3.9307,-1.3001,1.9960386388888887,2.0758739999999998
222.0,3.9307,-1.3001,1.9956774999999998,2.0758739999999998
223.0,3.9305,-1.3002,1.9953163611111109,2.0758739999999998
224.0,3.9302,-1.3,1.9949551944444441,2.0758739999999998
225.0,3.9298,-1.3001,1.994594083333333,2.0758739999999998
226.0,3.9298,-1.3001,1.9942329444444442,2.0758739999999998
227.0,3.9296,-1.3,1.9938718055555553,2.0758739999999998
228.0,3.9294,-1.3002,1.9935106944444443,2.0758739999999998
229.0,3.929,-1.3002,1.9931495277777775,2.0758739999999998
230.0,3.9287,-1.3002,1.9927883611111108,2.0758739999999998
231.0,3.9283,-1.3003,1.9924271944444443,2.0758739999999998
232.0,3.9283,-1.3,1.992066,2.0758739999999998
233.0,3.9281,-1.3003,1.9917048888888886,2.0758739999999998
234.0,3.9279,-1.3,1.9913436944444443,2.0758739999999998
235.0,3.928,-1.3002,1.990982583333333,2.0758739999999998
236.0,3.9274,-1.3002,1.9906214166666665,2.0758739999999998
237.0,3.9269,-1.3001,1.9902602499999997,2.0758739999999998
238.0,3.9273,-1.3002,1.9898991111111108,2.0758739999999998
239.0,3.9267,-1.3002,1.9895379444444443,2.0758739999999998
240.0,3.9264,-1.3002,1.9891767777777776,2.0758739999999998
241.0,3.926,-1.3001,1.9888156111111108,2.0758739999999998
242.0,3.9254,-1.3002,1.988454472222222,2.0758739999999998
243.0,3.9257,-1.3002,1.9880933055555554,2.0758739999999998
244.0,3.9255,-1.3003,1.9877321388888887,2.0758739999999998
245.0,3.925,-1.3004,1.9873709444444443,2.0758739999999998
246.0,3.9248,-1.3004,1.987009722222222,2.0758739999999998
247.0,3.9248,-1.3001,1.9866484999999998,2.0758739999999998
248.0,3.9244,-1.3004,1.986287361111111,2.0758739999999998
249.0,3.9242,-1.3001,1.9859261388888887,2.0758739999999998
250.0,3.924,-1.3003,1.9855649999999998,2.0758739999999998
251.0,3.9237,-1.3002,1.9852038055555554,2.0758739999999998
252.0,3.9234,-1.3003,1.9848426388888887,2.0758739999999998
253.0,3.923,-1.3001,1.9844814444444443,2.0758739999999998
254.0,3.9231,-1.3002,1.9841203055555554,2.0758739999999998
255.0,3.9227,-1.3001,1.9837591388888887,2.0758739999999998
256.0,3.9223,-1.3,1.9833979999999998,2.0758739999999998
257.0,3.9226,-1.3002,1.9830368888888887,2.0758739999999998
258.0,3.9221,-1.3001,1.982675722222222,2.0758739999999998
259.0,3.922,-1.3,1.982314583333333,2.0758739999999998
260.0,3.9218,-1.3003,1.981953472222222,2.0758739999999998
261.0,3.9215,-1.3001,1.9815922777777775,2.0758739999999998
262.0,3.921,-1.3003,1.9812311388888886,2.0758739999999998
263.0,3.9209,-1.3002,1.9808699444444442,2.0758739999999998
264.0,3.9207,-1.3002,1.9805087777777777,2.0758739999999998
265.0,3.9207,-1.3003,1.980147611111111,2.0758739999999998
266.0,3.9205,-1.3002,1.9797864166666663,2.0758739999999998
267.0,3.9199,-1.3003,1.9794252499999998,2.0758739999999998
268.0,3.9202,-1.3002,1.9790640555555554,2.0758739999999998
269.0,3.9197,-1.3003,1.9787028888888887,2.0758739999999998
270.0,3.9194,-1.3002,1.9783416944444443,2.0758739999999998
271.0,3.9194,-1.3003,1.9779805277777776,2.0758739999999998
272.0,3.9191,-1.3001,1.9776193333333332,2.0758739999999998
273.0,3.9187,-1.3002,1.9772581944444443,2.0758739999999998
274.0,3.9184,-1.3002,1.9768970277777775,2.0758739999999998
275.0,3.9181,-1.3002,1.9765358611111108,2.0758739999999998
276.0,3.918,-1.3003,1.9761746944444443,2.0758739999999998
277.0,3.9178,-1.3001,1.9758134999999997,2.0758739999999998
278.0,3.9174,-1.3003,1.975452361111111,2.0758739999999998
279.0,3.9174,-1.3003,1.9750911666666664,2.0758739999999998
280.0,3.9173,-1.3002,1.974729972222222,2.0758739999999998
281.0,3.9171,-1.3002,1.9743688055555553,2.0758739999999998
282.0,3.917,-1.3002,1.9740076388888887,2.0758739999999998
283.0,3.9162,-1.3003,1.973646472222222,2.0758739999999998
284.0,3.9163,-1.3004,1.9732852777777776,2.0758739999999998
285.0,3.916,-1.3003,1.9729240555555554,2.0758739999999998
286.0,3.9157,-1.3001,1.9725628611111108,2.0758739999999998
287.0,3.9156,-1.3002,1.9722017222222221,2.0758739999999998
288.0,3.9152,-1.3002,1.9718405555555554,2.0758739999999998
289.0,3.9149,-1.3003,1.9714793888888886,2.0758739999999998
290.0,3.915,-1.3001,1.9711181944444442,2.0758739999999998
291.0,3.9147,-1.3002,1.9707570555555554,2.0758739999999998
292.0,3.9144,-1.3001,1.9703958888888886,2.0758739999999998
293.0,3.914,-1.3002,1.9700347499999997,2.0758739999999998
294.0,3.9139,-1.3001,1.9696735833333332,2.0758739999999998
295.0,3.9138,-1.3003,1.9693124444444443,2.0758739999999998
296.0,3.9136,-1.3002,1.9689512499999997,2.0758739999999998
297.0,3.9135,-1.3002,1.9685900833333332,2.0758739999999998
298.0,3.9134,-1.3003,1.9682289166666664,2.0758739999999998
299.0,3.9129,-1.3002,1.967867722222222,2.0758739999999998
300.0,3.9126,-1.3001,1.9675065555555553,2.0758739999999998
301.0,3.9127,-1.3005,1.9671454166666664,2.0758739999999998
302.0,3.9124,-1.3003,1.9667841666666663,2.0758739999999998
303.0,3.9122,-1.3002,1.966422972222222,2.0758739999999998
304.0,3.9119,-1.3004,1.9660618055555554,2.0758739999999998
305.0,3.9117,-1.3002,1.9657005833333332,2.0758739999999998
306.0,3.9109,-1.3002,1.9653394166666664,2.0758739999999998
307.0,3.911,-1.3003,1.9649782499999997,2.0758739999999998
308.0,3.911,-1.3003,1.9646170555555553,2.0758739999999998
309.0,3.9106,-1.3004,1.964255861111111,2.0758739999999998
310.0,3.9106,-1.3001,1.9638946388888887,2.0758739999999998
311.0,3.9102,-1.3003,1.9635334999999998,2.0758739999999998
312.0,3.9097,-1.3003,1.9631723055555552,2.0758739999999998
313.0,3.91,-1.3002,1.9628111111111108,2.0758739999999998
314.0,3.91,-1.3001,1.9624499444444443,2.0758739999999998
315.0,3.9094,-1.3004,1.9620888055555554,2.0758739999999998
316.0,3.9092,-1.3002,1.9617275833333332,2.0758739999999998
317.0,3.909,-1.3004,1.9613664166666664,2.0758739999999998
318.0,3.9087,-1.3002,1.9610051944444442,2.0758739999999998
319.0,3.9086,-1.3003,1.9606440277777775,2.0758739999999998
320.0,3.9087,-1.3003,1.960282833333333,2.0758739999999998
321.0,3.9085,-1.3001,1.9599216388888887,2.0758739999999998
322.0,3.9081,-1.3003,1.9595604999999998,2.0758739999999998
323.0,3.9078,-1.3003,1.9591993055555554,2.0758739999999998
324.0,3.9074,-1.3003,1.9588381111111108,2.0758739999999998
325.0,3.9072,-1.3002,1.9584769166666665,2.0758739999999998
326.0,3.9071,-1.3002,1.9581157499999997,2.0758739999999998
327.0,3.9068,-1.3001,1.9577545833333332,2.0758739999999998
328.0,3.9066,-1.3004,1.9573934444444443,2.0758739999999998
329.0,3.9064,-1.3,1.957032222222222,2.0758739999999998
330.0,3.9062,-1.3002,1.9566711111111108,2.0758739999999998
331.0,3.9062,-1.3002,1.9563099444444443,2.0758739999999998
332.0,3.9058,-1.3002,1.9559487777777775,2.0758739999999998
333.0,3.9055,-1.3003,1.9555876111111108,2.0758739999999998
334.0,3.9051,-1.3003,1.9552264166666664,2.0758739999999998
335.0,3.9051,-1.3003,1.954865222222222,2.0758739999999998
336.0,3.905,-1.3003,1.9545040277777777,2.0758739999999998
337.0,3.9052,-1.3005,1.954142833333333,2.0758739999999998
338.0,3.9045,-1.3002,1.9537815833333332,2.0758739999999998
