Test_Time(s),Voltage(V),Current(A),remaining capacity,maximum capacity
0.0,4.0815,-1.3001,2.0809505277777784,2.0809505277777784
1.0,4.0618,-1.2999,2.08058938888889,2.0809505277777784
2.0,4.0578,-1.2999,2.0802283055555564,2.0809505277777784
3.0,4.0549,-1.2999,2.079867222222223,2.0809505277777784
4.0,4.0527,-1.2999,2.0795061388888896,2.0809505277777784
5.0,4.0506,-1.2999,2.079145055555556,2.0809505277777784
6.0,4.0491,-1.3,2.0787839722222228,2.0809505277777784
7.0,4.0473,-1.2999,2.078422861111112,2.0809505277777784
8.0,4.0459,-1.3,2.0780617777777786,2.0809505277777784
9.0,4.0444,-1.2999,2.0777006666666673,2.0809505277777784
10.0,4.043,-1.2999,2.077339583333334,2.0809505277777784
11.0,4.0416,-1.2999,2.0769785000000005,2.0809505277777784
12.0,4.0405,-1.3,2.0766174166666675,2.0809505277777784
13.0,4.0393,-1.3,2.0762563055555563,2.0809505277777784
14.0,4.0381,-1.2999,2.075895194444445,2.0809505277777784
15.0,4.0371,-1.3,2.0755341111111116,2.0809505277777784
16.0,4.0361,-1.2999,2.075173000000001,2.0809505277777784
17.0,4.0348,-1.2999,2.0748119166666674,2.0809505277777784
18.0,4.0337,-1.3,2.074450833333334,2.0809505277777784
19.0,4.033,-1.2999,2.0740897222222228,2.0809505277777784
20.0,4.032,-1.2999,2.0737286388888894,2.0809505277777784
21.0,4.031,-1.3,2.0733675555555564,2.0809505277777784
22.0,4.0301,-1.2999,2.073006444444445,2.0809505277777784
23.0,4.0293,-1.2999,2.0726453611111118,2.0809505277777784
24.0,4.0282,-1.2999,2.0722842777777783,2.0809505277777784
25.0,4.0274,-1.2999,2.071923194444445,2.0809505277777784
26.0,4.0266,-1.2999,2.071562111111112,2.0809505277777784
27.0,4.0256,-1.3001,2.0712010277777786,2.0809505277777784
28.0,4.025,-1.2999,2.0708398888888895,2.0809505277777784
29.0,4.0242,-1.2999,2.070478805555556,2.0809505277777784
30.0,4.0235,-1.2999,2.0701177222222227,2.0809505277777784
31.0,4.0226,-1.2999,2.0697566388888897,2.0809505277777784
32.0,4.0218,-1.2999,2.0693955555555563,2.0809505277777784
33.0,4.021,-1.2999,2.069034472222223,2.0809505277777784
34.0,4.0204,-1.2999,2.0686733888888895,2.0809505277777784
35.0,4.0197,-1.3,2.068312305555556,2.0809505277777784
36.0,4.019,-1.2999,2.0679511944444453,2.0809505277777784
37.0,4.0181,-1.2999,2.067590111111112,2.0809505277777784
38.0,4.0175,-1.2999,2.0672290277777785,2.0809505277777784
39.0,4.0168,-1.3,2.066867944444445,2.0809505277777784
40.0,4.0159,-1.2999,2.066506833333334,2.0809505277777784
41.0,4.0155,-1.3,2.0661457500000004,2.0809505277777784
42.0,4.0147,-1.2999,2.0657846388888896,2.0809505277777784
43.0,4.0137,-1.3,2.0654235555555562,2.0809505277777784
44.0,4.0134,-1.2999,2.065062444444445,2.0809505277777784
45.0,4.0128,-1.2999,2.0647013611111116,2.0809505277777784
46.0,4.0122,-1.3,2.0643402777777786,2.0809505277777784
47.0,4.0115,-1.2999,2.0639791666666674,2.0809505277777784
48.0,4.0108,-1.3,2.063618083333334,2.0809505277777784
49.0,4.0102,-1.3,2.0632569722222227,2.0809505277777784
50.0,4.0098,-1.2999,2.062895861111112,2.0809505277777784
51.0,4.0091,-1.3,2.0625347777777785,2.0809505277777784
52.0,4.0083,-1.2999,2.0621736666666672,2.0809505277777784
53.0,4.0077,-1.2999,2.061812583333334,2.0809505277777784
54.0,4.0074,-1.2999,2.061451500000001,2.0809505277777784
55.0,4.0069,-1.2999,2.0610904166666675,2.0809505277777784
56.0,4.006,-1.2999,2.060729333333334,2.0809505277777784
57.0,4.0054,-1.2999,2.0603682500000007,2.0809505277777784
58.0,4.005,-1.2999,2.0600071666666673,2.0809505277777784
59.0,4.0043,-1.2999,2.059646083333334,2.0809505277777784
60.0,4.0038,-1.2999,2.0592850000000005,2.0809505277777784
61.0,4.0035,-1.2999,2.0589239166666675,2.0809505277777784
62.0,4.0027,-1.2998,2.058562833333334,2.0809505277777784
63.0,4.0023,-1.3,2.0582017777777786,2.0809505277777784
64.0,4.0016,-1.2999,2.0578406666666673,2.0809505277777784
65.0,4.001,-1.2999,2.057479583333334,2.0809505277777784
66.0,4.0006,-1.2999,2.0571185000000005,2.0809505277777784
67.0,4.0002,-1.2999,2.056757416666667,2.0809505277777784
68.0,3.9998,-1.3,2.056396333333334,2.0809505277777784
69.0,3.999,-1.2999,2.056035222222223,2.0809505277777784
70.0,3.9986,-1.2998,2.0556741388888895,2.0809505277777784
71.0,3.9981,-1.2999,2.055313083333334,2.0809505277777784
72.0,3.9976,-1.2999,2.0549520000000006,2.0809505277777784
73.0,3.997,-1.2999,2.054590916666667,2.0809505277777784
74.0,3.9966,-1.2999,2.054229833333334,2.0809505277777784
75.0,3.9961,-1.2999,2.053868750000001,2.0809505277777784
76.0,3.9955,-1.2999,2.0535076666666674,2.0809505277777784
77.0,3.9951,-1.2999,2.053146583333334,2.0809505277777784
78.0,3.9947,-1.3,2.0527855000000006,2.0809505277777784
79.0,3.9943,-1.3,2.0524243888888893,2.0809505277777784
80.0,3.9938,-1.2999,2.0520632777777785,2.0809505277777784
81.0,3.9934,-1.2999,2.051702194444445,2.0809505277777784
82.0,3.9926,-1.2999,2.0513411111111117,2.0809505277777784
83.0,3.9924,-1.2999,2.0509800277777783,2.0809505277777784
84.0,3.992,-1.3,2.050618944444445,2.0809505277777784
85.0,3.9913,-1.2999,2.050257833333334,2.0809505277777784
86.0,3.991,-1.3,2.0498967500000007,2.0809505277777784
87.0,3.9907,-1.2999,2.0495356388888895,2.0809505277777784
88.0,3.99,-1.2999,2.049174555555556,2.0809505277777784
89.0,3.9898,-1.3,2.048813472222223,2.0809505277777784
90.0,3.9892,-1.2999,2.048452361111112,2.0809505277777784
91.0,3.9887,-1.3,2.0480912777777784,2.0809505277777784
92.0,3.9884,-1.3,2.047730166666667,2.0809505277777784
93.0,3.988,-1.2999,2.0473690555555564,2.0809505277777784
94.0,3.9878,-1.3,2.047007972222223,2.0809505277777784
95.0,3.987,-1.2999,2.0466468611111117,2.0809505277777784
96.0,3.9869,-1.2999,2.0462857777777783,2.0809505277777784
97.0,3.9863,-1.2999,2.045924694444445,2.0809505277777784
98.0,3.9859,-1.2999,2.045563611111112,2.0809505277777784
99.0,3.9855,-1.2999,2.0452025277777786,2.0809505277777784
100.0,3.9852,-1.2998,2.044841444444445,2.0809505277777784
101.0,3.9847,-1.2999,2.0444803888888896,2.0809505277777784
102.0,3.9842,-1.3,2.044119305555556,2.0809505277777784
103.0,3.984,-1.2999,2.043758194444445,2.0809505277777784
104.0,3.9835,-1.3,2.043397111111112,2.0809505277777784
105.0,3.9832,-1.2999,2.0430360000000007,2.0809505277777784
106.0,3.9828,-1.2999,2.0426749166666673,2.0809505277777784
107.0,3.9821,-1.2999,2.042313833333334,2.0809505277777784
108.0,3.9821,-1.2999,2.0419527500000005,2.0809505277777784
109.0,3.9818,-1.2999,2.041591666666667,2.0809505277777784
110.0,3.9813,-1.2999,2.041230583333334,2.0809505277777784
111.0,3.9809,-1.2999,2.040869500000001,2.0809505277777784
112.0,3.9807,-1.2999,2.0405084166666674,2.0809505277777784
113.0,3.9799,-1.2999,2.040147333333334,2.0809505277777784
114.0,3.9797,-1.2999,2.0397862500000006,2.0809505277777784
115.0,3.9793,-1.2999,2.039425166666667,2.0809505277777784
116.0,3.979,-1.2999,2.039064083333334,2.0809505277777784
117.0,3.9788,-1.2999,2.038703000000001,2.0809505277777784
118.0,3.9784,-1.2999,2.0383419166666674,2.0809505277777784
119.0,3.9783,-1.2999,2.037980833333334,2.0809505277777784
120.0,3.9775,-1.2999,2.0376197500000006,2.0809505277777784
121.0,3.9772,-1.2999,2.037258666666667,2.0809505277777784
122.0,3.9769,-1.2999,2.036897583333334,2.0809505277777784
123.0,3.9765,-1.2999,2.036536500000001,2.0809505277777784
124.0,3.9762,-1.3,2.0361754166666675,2.0809505277777784
125.0,3.976,-1.3,2.035814305555556,2.0809505277777784
126.0,3.9757,-1.2999,2.035453194444445,2.0809505277777784
127.0,3.9753,-1.3,2.035092111111112,2.0809505277777784
128.0,3.9748,-1.3,2.0347310000000007,2.0809505277777784
129.0,3.9746,-1.2999,2.0343698888888895,2.0809505277777784
130.0,3.974,-1.2999,2.034008805555556,2.0809505277777784
131.0,3.9739,-1.2999,2.0336477222222227,2.0809505277777784
132.0,3.9738,-1.2999,2.0332866388888897,2.0809505277777784
133.0,3.9732,-1.2999,2.0329255555555563,2.0809505277777784
134.0,3.9729,-1.2999,2.032564472222223,2.0809505277777784
135.0,3.9724,-1.2999,2.0322033888888895,2.0809505277777784
136.0,3.9723,-1.2999,2.031842305555556,2.0809505277777784
137.0,3.9719,-1.3,2.0314812222222227,2.0809505277777784
138.0,3.9716,-1.2998,2.031120111111112,2.0809505277777784
139.0,3.9714,-1.2999,2.0307590555555564,2.0809505277777784
140.0,3.9709,-1.3,2.030397972222223,2.0809505277777784
141.0,3.9709,-1.2999,2.0300368611111117,2.0809505277777784
142.0,3.9701,-1.2999,2.0296757777777783,2.0809505277777784
143.0,3.9698,-1.2999,2.029314694444445,2.0809505277777784
144.0,3.9696,-1.2999,2.028953611111112,2.0809505277777784
145.0,3.9694,-1.3,2.0285925277777785,2.0809505277777784
146.0,3.9689,-1.2999,2.0282314166666673,2.0809505277777784
147.0,3.9689,-1.2999,2.027870333333334,2.0809505277777784
148.0,3.9684,-1.2999,2.0275092500000005,2.0809505277777784
149.0,3.9682,-1.2999,2.0271481666666675,2.0809505277777784
150.0,3.9679,-1.2999,2.026787083333334,2.0809505277777784
151.0,3.9676,-1.2999,2.0264260000000007,2.0809505277777784
152.0,3.9672,-1.3,2.0260649166666673,2.0809505277777784
153.0,3.9669,-1.3,2.025703805555556,2.0809505277777784
154.0,3.9667,-1.3,2.0253426944444453,2.0809505277777784
155.0,3.9661,-1.3,2.024981583333334,2.0809505277777784
156.0,3.9661,-1.2999,2.0246204722222227,2.0809505277777784
157.0,3.9657,-1.2999,2.0242593888888893,2.0809505277777784
158.0,3.9655,-1.2999,2.0238983055555564,2.0809505277777784
159.0,3.9653,-1.2999,2.023537222222223,2.0809505277777784
160.0,3.9649,-1.3,2.0231761388888896,2.0809505277777784
161.0,3.9645,-1.3,2.0228150277777783,2.0809505277777784
162.0,3.9643,-1.3,2.0224539166666675,2.0809505277777784
163.0,3.964,-1.2998,2.0220928055555563,2.0809505277777784
164.0,3.9637,-1.2999,2.0217317500000007,2.0809505277777784
165.0,3.9636,-1.2999,2.0213706666666673,2.0809505277777784
166.0,3.963,-1.2999,2.021009583333334,2.0809505277777784
167.0,3.9628,-1.2999,2.0206485000000005,2.0809505277777784
168.0,3.9626,-1.3,2.020287416666667,2.0809505277777784
169.0,3.9623,-1.2999,2.0199263055555563,2.0809505277777784
170.0,3.9621,-1.3,2.019565222222223,2.0809505277777784
171.0,3.9618,-1.2999,2.0192041111111116,2.0809505277777784
172.0,3.9615,-1.3,2.0188430277777782,2.0809505277777784
173.0,3.9613,-1.3,2.0184819166666674,2.0809505277777784
174.0,3.9608,-1.2999,2.018120805555556,2.0809505277777784
175.0,3.9607,-1.2999,2.0177597222222228,2.0809505277777784
176.0,3.9604,-1.2998,2.0173986388888894,2.0809505277777784
177.0,3.9601,-1.2999,2.017037583333334,2.0809505277777784
178.0,3.96,-1.2999,2.016676500000001,2.0809505277777784
179.0,3.9596,-1.2999,2.0163154166666675,2.0809505277777784
180.0,3.9593,-1.2999,2.015954333333334,2.0809505277777784
181.0,3.9589,-1.2999,2.0155932500000007,2.0809505277777784
182.0,3.9588,-1.2999,2.0152321666666673,2.0809505277777784
183.0,3.9586,-1.3,2.014871083333334,2.0809505277777784
184.0,3.9582,-1.2999,2.014509972222223,2.0809505277777784
185.0,3.9579,-1.2999,2.0141488888888897,2.0809505277777784
186.0,3.9577,-1.2999,2.0137878055555563,2.0809505277777784
187.0,3.9574,-1.3,2.013426722222223,2.0809505277777784
188.0,3.9572,-1.3,2.0130656111111116,2.0809505277777784
189.0,3.9568,-1.2999,2.012704500000001,2.0809505277777784
190.0,3.9566,-1.2999,2.0123434166666674,2.0809505277777784
191.0,3.9566,-1.3,2.011982333333334,2.0809505277777784
192.0,3.9563,-1.2999,2.0116212222222227,2.0809505277777784
193.0,3.9558,-1.2999,2.0112601388888898,2.0809505277777784
194.0,3.9556,-1.2999,2.0108990555555564,2.0809505277777784
195.0,3.9555,-1.2999,2.010537972222223,2.0809505277777784
196.0,3.9553,-1.2999,2.0101768888888896,2.0809505277777784
197.0,3.955,-1.3,2.009815805555556,2.0809505277777784
198.0,3.9547,-1.2999,2.009454694444445,2.0809505277777784
199.0,3.9541,-1.2999,2.009093611111112,2.0809505277777784
200.0,3.9541,-1.2999,2.0087325277777786,2.0809505277777784
201.0,3.9539,-1.2999,2.008371444444445,2.0809505277777784
202.0,3.9535,-1.2999,2.0080103611111118,2.0809505277777784
203.0,3.9535,-1.2999,2.0076492777777784,2.0809505277777784
204.0,3.9531,-1.3,2.007288194444445,2.0809505277777784
205.0,3.9529,-1.2999,2.006927083333334,2.0809505277777784
206.0,3.9525,-1.3,2.0065660000000007,2.0809505277777784
207.0,3.9523,-1.2999,2.0062048888888895,2.0809505277777784
208.0,3.9521,-1.2999,2.005843805555556,2.0809505277777784
209.0,3.9518,-1.2999,2.0054827222222227,2.0809505277777784
210.0,3.9517,-1.2999,2.0051216388888897,2.0809505277777784
211.0,3.9514,-1.3,2.0047605555555563,2.0809505277777784
212.0,3.9512,-1.3,2.004399444444445,2.0809505277777784
213.0,3.9508,-1.2999,2.004038333333334,2.0809505277777784
214.0,3.9507,-1.2999,2.003677250000001,2.0809505277777784
215.0,3.9506,-1.3,2.0033161666666675,2.0809505277777784
216.0,3.9501,-1.2999,2.002955055555556,2.0809505277777784
217.0,3.95,-1.2999,2.002593972222223,2.0809505277777784
218.0,3.9498,-1.2999,2.0022328888888894,2.0809505277777784
219.0,3.9494,-1.2999,2.001871805555556,2.0809505277777784
220.0,3.9492,-1.3,2.001510722222223,2.0809505277777784
221.0,3.949,-1.2999,2.001149611111112,2.0809505277777784
222.0,3.9486,-1.2999,2.0007885277777784,2.0809505277777784
223.0,3.9485,-1.2999,2.000427444444445,2.0809505277777784
224.0,3.9483,-1.2999,2.0000663611111116,2.0809505277777784
225.0,3.9481,-1.2999,1.9997052777777784,2.0809505277777784
226.0,3.9479,-1.3,1.9993441944444452,2.0809505277777784
227.0,3.9477,-1.2999,1.998983083333334,2.0809505277777784
228.0,3.9474,-1.2999,1.9986220000000006,2.0809505277777784
229.0,3.9471,-1.3,1.9982609166666674,2.0809505277777784
230.0,3.9468,-1.3,1.9978998055555561,2.0809505277777784
231.0,3.9467,-1.2999,1.997538694444445,2.0809505277777784
232.0,3.9464,-1.2999,1.9971776111111117,2.0809505277777784
233.0,3.9461,-1.2999,1.9968165277777785,2.0809505277777784
234.0,3.9462,-1.2999,1.9964554444444451,2.0809505277777784
235.0,3.9456,-1.2999,1.9960943611111117,2.0809505277777784
236.0,3.9455,-1.3,1.9957332777777785,2.0809505277777784
237.0,3.9453,-1.3,1.9953721666666673,2.0809505277777784
238.0,3.9451,-1.2999,1.9950110555555562,2.0809505277777784
239.0,3.9448,-1.2999,1.9946499722222228,2.0809505277777784
240.0,3.9444,-1.3,1.9942888888888897,2.0809505277777784
241.0,3.9445,-1.2999,1.9939277777777784,2.0809505277777784
242.0,3.9442,-1.2999,1.993566694444445,2.0809505277777784
243.0,3.9441,-1.2998,1.9932056111111118,2.0809505277777784
244.0,3.9436,-1.2999,1.9928445555555563,2.0809505277777784
245.0,3.9436,-1.2999,1.9924834722222229,2.0809505277777784
246.0,3.9433,-1.2999,1.9921223888888895,2.0809505277777784
247.0,3.9431,-1.2999,1.9917613055555563,2.0809505277777784
248.0,3.9426,-1.2999,1.991400222222223,2.0809505277777784
249.0,3.9425,-1.2999,1.9910391388888895,2.0809505277777784
250.0,3.9422,-1.3,1.990678055555556,2.0809505277777784
251.0,3.9421,-1.2999,1.990316944444445,2.0809505277777784
252.0,3.9421,-1.2999,1.9899558611111117,2.0809505277777784
253.0,3.9418,-1.3,1.9895947777777785,2.0809505277777784
254.0,3.9415,-1.3,1.9892336666666672,2.0809505277777784
255.0,3.9411,-1.2999,1.9888725555555562,2.0809505277777784
256.0,3.9411,-1.2999,1.9885114722222228,2.0809505277777784
257.0,3.9407,-1.3,1.9881503888888896,2.0809505277777784
258.0,3.9406,-1.2999,1.9877892777777784,2.0809505277777784
259.0,3.9406,-1.2999,1.9874281944444452,2.0809505277777784
260.0,3.94,-1.2999,1.9870671111111118,2.0809505277777784
261.0,3.9401,-1.2999,1.9867060277777784,2.0809505277777784
262.0,3.9396,-1.2999,1.9863449444444452,2.0809505277777784
263.0,3.9396,-1.2999,1.9859838611111118,2.0809505277777784
264.0,3.9394,-1.3,1.9856227777777784,2.0809505277777784
265.0,3.9389,-1.3,1.9852616666666674,2.0809505277777784
266.0,3.9389,-1.2999,1.9849005555555561,2.0809505277777784
267.0,3.9384,-1.2999,1.984539472222223,2.0809505277777784
268.0,3.9384,-1.3,1.9841783888888895,2.0809505277777784
269.0,3.9382,-1.2999,1.9838172777777785,2.0809505277777784
270.0,3.9377,-1.3,1.983456194444445,2.0809505277777784
271.0,3.9377,-1.2999,1.983095083333334,2.0809505277777784
272.0,3.9375,-1.3,1.9827340000000007,2.0809505277777784
273.0,3.9374,-1.2999,1.9823728888888896,2.0809505277777784
274.0,3.9371,-1.2999,1.9820118055555562,2.0809505277777784
275.0,3.9368,-1.2999,1.9816507222222228,2.0809505277777784
276.0,3.9368,-1.2999,1.9812896388888896,2.0809505277777784
277.0,3.9364,-1.2998,1.9809285555555562,2.0809505277777784
278.0,3.9363,-1.3,1.9805675000000007,2.0809505277777784
279.0,3.9359,-1.2999,1.9802063888888894,2.0809505277777784
280.0,3.9356,-1.2999,1.9798453055555563,2.0809505277777784
281.0,3.9357,-1.2999,1.9794842222222229,2.0809505277777784
282.0,3.9354,-1.3,1.9791231388888895,2.0809505277777784
283.0,3.9349,-1.3,1.9787620277777784,2.0809505277777784
284.0,3.9347,-1.3,1.9784009166666674,2.0809505277777784
285.0,3.9346,-1.2999,1.9780398055555561,2.0809505277777784
286.0,3.9343,-1.3,1.977678722222223,2.0809505277777784
287.0,3.9344,-1.3,1.9773176111111117,2.0809505277777784
288.0,3.9339,-1.2999,1.9769565000000007,2.0809505277777784
289.0,3.9338,-1.2999,1.9765954166666673,2.0809505277777784
290.0,3.9334,-1.3,1.976234333333334,2.0809505277777784
291.0,3.9335,-1.2999,1.9758732222222228,2.0809505277777784
292.0,3.9331,-1.2999,1.9755121388888894,2.0809505277777784
293.0,3.9331,-1.2999,1.9751510555555563,2.0809505277777784
294.0,3.9329,-1.2998,1.9747899722222229,2.0809505277777784
295.0,3.9326,-1.2999,1.9744289166666673,2.0809505277777784
296.0,3.9323,-1.3,1.974067833333334,2.0809505277777784
297.0,3.932,-1.2999,1.9737067222222229,2.0809505277777784
298.0,3.9319,-1.2999,1.9733456388888895,2.0809505277777784
299.0,3.9318,-1.3,1.9729845555555563,2.0809505277777784
300.0,3.9313,-1.2999,1.972623444444445,2.0809505277777784
301.0,3.9313,-1.2999,1.9722623611111119,2.0809505277777784
302.0,3.931,-1.2999,1.9719012777777785,2.0809505277777784
303.0,3.9308,-1.2999,1.971540194444445,2.0809505277777784
304.0,3.9306,-1.2999,1.9711791111111117,2.0809505277777784
305.0,3.9305,-1.2999,1.9708180277777785,2.0809505277777784
306.0,3.9301,-1.2998,1.970456944444445,2.0809505277777784
307.0,3.9299,-1.2999,1.9700958888888895,2.0809505277777784
308.0,3.9299,-1.3,1.9697348055555561,2.0809505277777784
309.0,3.9295,-1.2999,1.969373694444445,2.0809505277777784
310.0,3.9295,-1.2999,1.9690126111111117,2.0809505277777784
311.0,3.9292,-1.3,1.9686515277777785,2.0809505277777784
312.0,3.9289,-1.3,1.9682904166666673,2.0809505277777784
313.0,3.9286,-1.2999,1.9679293055555562,2.0809505277777784
314.0,3.9285,-1.2999,1.9675682222222228,2.0809505277777784
315.0,3.9283,-1.3,1.9672071388888894,2.0809505277777784
316.0,3.9283,-1.2998,1.9668460277777784,2.0809505277777784
317.0,3.928,-1.2999,1.9664849722222228,2.0809505277777784
318.0,3.9277,-1.2999,1.9661238888888894,2.0809505277777784
319.0,3.9276,-1.2999,1.9657628055555563,2.0809505277777784
320.0,3.9274,-1.3,1.9654017222222229,2.0809505277777784
321.0,3.9272,-1.2999,1.9650406111111118,2.0809505277777784
322.0,3.9269,-1.2999,1.9646795277777784,2.0809505277777784
323.0,3.9267,-1.3,1.964318444444445,2.0809505277777784
324.0,3.9265,-1.3,1.963957333333334,2.0809505277777784
325.0,3.9263,-1.3,1.963596222222223,2.0809505277777784
326.0,3.926,-1.3,1.9632351111111117,2.0809505277777784
327.0,3.9259,-1.3,1.9628740000000007,2.0809505277777784
328.0,3.9258,-1.3,1.9625128888888894,2.0809505277777784
329.0,3.9253,-1.2999,1.9621517777777784,2.0809505277777784
330.0,3.9254,-1.2999,1.961790694444445,2.0809505277777784
331.0,3.925,-1.2999,1.9614296111111118,2.0809505277777784
332.0,3.9248,-1.2999,1.9610685277777784,2.0809505277777784
333.0,3.9244,-1.2999,1.960707444444445,2.0809505277777784
334.0,3.9246,-1.2999,1.9603463611111118,2.0809505277777784
335.0,3.9243,-1.2999,1.9599852777777784,2.0809505277777784
336.0,3.9242,-1.2999,1.959624194444445,2.0809505277777784
337.0,3.9238,-1.3,1.9592631111111118,2.0809505277777784
338.0,3.9237,-1.2999,1.9589020000000006,2.0809505277777784
339.0,3.9236,-1.2999,1.9585409166666674,2.0809505277777784
340.0,3.9232,-1.3,1.958179833333334,2.0809505277777784
